host_time_s,t_ms,ax1,ay1,az1,roll1,pitch1,yaw1,gx1,gy1,gz1,ax2,ay2,az2,roll2,pitch2,yaw2,gx2,gy2,gz2,emg1,emg2
1772476431.420045,2522200,-0.04,0.39,0.07,-41.31,-80.69,99.44,52.25,23.87,-6.75,-0.01,0.10,-0.30,-0.75,-76.50,279.19,3.94,5.69,-0.44,5,6
1772476431.420289,2522240,1.01,0.19,-0.12,-45.25,-81.56,101.69,49.69,16.31,-17.94,-0.02,0.13,-0.14,-0.75,-76.62,279.44,6.44,-1.62,-4.50,7,6
1772476431.420521,2522281,0.45,-0.12,0.21,-46.44,-82.62,104.06,42.75,8.25,-25.19,-0.04,-0.19,-0.32,-0.31,-76.69,279.81,7.31,2.50,-3.44,8,7
1772476431.420748,2522320,-0.58,-0.17,0.47,-4.44,-83.44,106.50,42.63,5.50,-21.87,-0.05,-0.42,-0.35,0.00,-76.75,280.25,8.19,-0.06,-3.12,9,8
1772476431.420992,2522360,-0.12,-0.34,0.28,-3.87,-84.25,108.62,36.56,17.87,-14.06,-0.13,-0.37,-0.06,0.56,-76.81,280.62,5.31,1.87,0.00,9,8
1772476431.421224,2522401,-0.32,-0.53,0.25,-3.44,-85.06,110.37,32.56,18.94,-10.00,-0.05,-0.18,-0.15,0.88,-77.00,280.75,-0.13,1.25,2.50,9,7
1772476431.421580,2522441,0.01,-0.63,0.12,-3.12,-85.81,111.87,25.56,16.00,-6.00,-0.02,-0.07,-0.04,0.62,-77.06,280.69,-0.56,0.37,3.50,10,6
1772476431.422082,2522481,-0.15,-0.67,0.12,-2.94,-86.31,112.94,16.56,11.56,-3.37,0.03,-0.01,-0.27,0.06,-77.12,280.50,-1.50,1.81,3.50,11,4
1772476431.422534,2522521,-0.04,-0.41,0.12,-2.62,-86.81,113.75,7.94,10.13,0.00,0.03,0.01,-0.15,-0.31,-77.12,280.37,0.75,0.31,1.75,9,4
1772476431.422973,2522562,0.09,-0.23,-0.01,-2.56,-87.06,114.00,0.88,8.19,2.00,0.10,0.04,-0.20,-0.62,-77.19,280.37,0.75,0.62,1.06,10,5
1772476431.423435,2522602,-0.16,-0.13,0.04,-2.62,-87.12,113.87,-4.00,8.50,3.69,0.00,-0.03,-0.13,-0.88,-77.19,280.37,0.69,1.31,1.37,9,5
1772476431.423899,2522642,-0.24,0.00,0.09,-2.75,-87.06,113.56,-5.62,7.37,3.44,-0.01,-0.04,-0.10,-1.12,-77.31,280.31,-0.44,1.06,2.00,8,4
1772476431.424336,2522682,-0.42,0.07,0.17,-2.87,-87.00,113.19,-7.00,8.63,4.44,0.00,-0.03,0.09,-1.44,-77.31,280.19,-1.06,0.50,1.81,6,3
1772476431.424782,2522722,-0.26,0.28,0.11,-3.06,-86.87,112.69,-4.62,11.69,3.06,0.07,-0.06,0.06,-1.81,-77.37,280.06,-0.06,1.44,2.62,6,2
1772476431.425191,2522761,-0.07,0.21,-0.03,-176.75,-86.69,112.37,-0.31,11.88,1.94,0.06,0.05,-0.04,-2.25,-77.44,279.94,0.25,1.56,1.87,6,3
1772476431.425577,2522802,0.03,0.15,-0.04,-176.62,-86.56,112.25,1.69,10.63,2.75,0.19,0.08,-0.04,-2.50,-77.56,279.94,-0.31,3.19,2.94,5,3
1772476431.425955,2522842,0.02,0.15,0.03,-176.50,-86.31,112.25,3.75,8.00,2.37,0.01,0.03,-0.10,-2.75,-77.56,280.06,4.94,-1.31,-1.12,4,3
1772476431.426329,2522883,0.08,-0.01,0.01,-176.37,-86.12,112.31,5.62,5.50,2.50,0.01,-0.04,-0.19,-2.69,-77.50,280.25,4.31,-0.75,-1.25,3,3
1772476431.426709,2522922,0.00,-0.01,-0.02,-176.31,-86.00,112.44,4.31,0.37,1.50,0.02,-0.02,-0.20,-2.56,-77.50,280.44,2.69,-1.00,-1.50,3,3
1772476431.426983,2522962,-0.15,-0.07,0.04,-176.25,-85.94,112.62,3.44,-2.56,1.06,-0.02,-0.08,-0.12,-2.31,-77.50,280.56,-0.94,-2.06,-1.25,3,2
1772476431.427205,2523003,-0.24,-0.06,0.15,-176.25,-86.00,112.69,1.19,-2.19,1.19,0.03,-0.14,0.04,-2.00,-77.37,280.56,-2.44,-1.69,-0.37,2,2
1772476431.427414,2523043,-0.28,-0.03,0.15,-176.19,-85.94,112.69,-0.06,0.31,1.56,0.03,-0.03,-0.16,-1.81,-77.37,280.50,-3.25,-0.37,0.56,3,3
1772476431.427671,2523083,-0.31,0.07,0.20,-176.12,-85.87,112.62,-1.31,4.12,2.69,-0.07,-0.10,0.02,-1.62,-77.31,280.44,-2.50,-1.12,0.75,3,3
1772476431.428042,2523123,-0.68,0.42,0.31,-176.00,-85.69,112.50,0.81,8.25,2.19,0.02,-0.09,0.00,-1.81,-77.37,280.25,-3.50,3.56,4.25,2,4
1772476431.428429,2523163,-1.35,1.20,0.97,-175.94,-85.44,112.56,13.81,27.00,0.62,0.17,-0.13,0.18,-2.50,-77.44,280.00,-7.37,-1.50,6.12,2,6
1772476431.428821,2523204,-0.24,-0.17,0.35,-175.87,-84.50,113.19,35.81,46.19,11.56,-0.20,-0.16,-0.13,-3.12,-77.19,279.50,-9.69,-15.81,6.44,3,7
1772476431.429212,2523244,0.67,-0.70,-0.35,-138.75,-82.81,113.81,27.00,36.31,28.44,-0.16,0.06,-0.33,-3.62,-76.56,279.06,-2.00,-4.37,5.44,4,8
1772476431.429528,2523284,0.48,-0.24,-0.33,-139.00,-81.25,113.50,8.88,18.37,23.69,0.12,0.14,-0.47,-4.25,-76.44,278.87,-1.12,-12.88,2.56,3,10
1772476431.429795,2523324,0.65,0.10,-0.23,-138.19,-80.37,113.06,-5.56,9.25,8.94,0.03,0.22,0.14,-3.87,-75.62,278.87,2.00,-20.87,-3.37,3,10
1772476431.430081,2523364,0.08,0.98,0.05,-137.94,-80.12,112.44,-13.81,-1.37,-5.75,0.19,0.06,-0.21,-3.50,-75.12,279.19,10.06,-8.94,-3.37,3,10
1772476431.430299,2523405,-0.03,0.43,0.04,-138.81,-80.44,112.31,-9.63,-5.19,-16.81,-0.03,-0.16,-0.08,-3.44,-74.81,279.56,8.50,-11.69,-2.44,3,10
1772476431.430509,2523445,-0.42,0.21,0.24,-141.06,-81.12,112.69,-9.94,-7.06,-22.12,-0.10,-0.27,-0.31,-3.37,-74.44,279.81,6.94,-11.13,0.19,3,9
1772476431.430733,2523485,-0.40,0.08,0.35,-144.87,-81.87,113.25,-5.69,-1.94,-26.19,0.04,-0.10,-0.30,-3.31,-74.00,280.00,-1.19,-21.56,0.75,3,10
1772476431.430962,2523525,-0.16,-0.25,0.28,-150.37,-82.37,113.87,-6.62,0.81,-20.37,0.26,-0.02,-0.20,-3.19,-73.19,279.81,-9.56,-17.56,5.06,4,9
1772476431.431167,2523564,-0.52,0.05,0.36,-155.50,-82.69,114.37,-2.50,5.75,-19.19,0.00,-0.02,-0.43,-3.37,-72.44,279.25,-15.88,-29.06,8.69,3,7
1772476431.431383,2523605,-0.31,-0.42,0.19,-161.12,-82.62,115.00,-0.62,10.63,-10.19,-0.09,-0.02,0.03,-3.69,-71.19,278.25,-29.44,-36.75,12.81,3,5
1772476431.431605,2523645,-0.27,-0.35,0.15,-163.06,-82.31,115.12,1.25,10.38,8.25,0.12,0.17,0.00,-3.75,-69.87,277.06,-15.69,-23.25,8.69,3,6
1772476431.431823,2523685,0.01,-0.01,0.12,-160.31,-81.81,114.69,4.69,4.69,21.94,-0.14,-0.05,0.33,-4.00,-68.81,276.50,-7.94,-32.00,6.44,3,6
1772476431.432078,2523725,0.21,0.08,-0.07,-155.44,-81.37,114.06,5.19,1.31,18.19,0.12,0.24,0.04,-4.12,-67.81,276.00,-6.62,-13.63,7.37,4,6
1772476431.432312,2523765,-0.05,-0.01,-0.18,-152.87,-81.12,113.75,2.37,1.06,3.31,0.06,0.18,-0.05,-4.31,-67.44,275.75,-2.31,-5.50,0.69,4,6
1772476431.432543,2523806,0.07,0.02,-0.02,-153.25,-81.06,113.87,-4.87,0.56,-7.94,0.00,0.25,0.36,-4.06,-67.19,275.69,-4.37,-6.44,-7.56,4,6
1772476431.432770,2523846,-0.18,0.01,0.05,-155.69,-81.31,114.06,-8.75,-2.19,-18.50,0.00,0.26,0.07,-3.25,-67.19,276.00,2.56,3.69,-9.25,6,7
1772476431.433020,2523886,-0.26,0.10,0.14,-160.00,-81.62,114.44,-8.00,0.00,-21.44,-0.02,0.13,0.09,-2.56,-67.31,276.44,5.12,-1.31,-14.81,6,10
1772476431.433245,2523926,-0.38,-0.22,0.20,-164.94,-81.87,114.94,-2.75,1.81,-16.50,0.10,0.22,0.36,-1.37,-67.19,277.19,8.94,-4.06,-15.38,6,11
1772476431.433483,2523966,-0.59,-0.21,0.14,-168.75,-81.87,115.37,1.81,6.94,-11.19,-0.04,-0.06,-0.09,-0.37,-67.00,278.00,10.44,-3.62,-12.44,6,12
1772476431.433829,2524007,-0.22,-0.26,0.04,-171.75,-81.56,115.87,3.69,12.50,-2.62,-0.01,0.00,0.12,0.25,-66.87,278.69,10.38,-2.50,-12.25,6,13
1772476431.434167,2524047,-0.14,0.03,-0.09,-172.50,-81.12,116.06,4.69,13.25,2.81,-0.02,0.00,-0.09,0.94,-66.81,279.50,13.63,2.62,-12.31,5,12
1772476431.434389,2524087,0.27,0.03,-0.23,-172.12,-80.62,116.12,6.06,11.38,6.00,0.05,-0.15,-0.26,1.69,-66.87,280.44,13.94,0.75,-16.19,6,12
1772476431.434642,2524127,0.41,0.15,-0.26,-171.06,-80.19,116.19,5.81,4.37,7.87,-0.11,-0.32,-0.11,2.75,-66.87,281.44,12.81,-1.50,-14.56,6,11
1772476431.434873,2524166,0.18,0.20,-0.21,-169.62,-80.06,116.06,7.50,-3.69,6.56,-0.05,-0.24,-0.09,3.62,-66.81,282.25,8.06,-2.56,-10.38,6,11
1772476431.464493,2524207,0.17,-0.05,-0.19,-168.37,-80.19,116.25,6.69,-7.19,4.12,-0.09,-0.27,-0.12,4.31,-66.75,282.69,1.44,-4.12,-4.81,5,11
1772476431.504367,2524247,0.17,0.01,-0.04,-167.44,-80.44,116.37,2.25,-9.38,2.81,0.09,-0.06,-0.20,4.75,-66.62,282.81,-4.62,-3.75,0.25,4,10
1772476431.544624,2524287,-0.07,0.01,0.03,-166.37,-80.81,116.37,0.13,-11.06,1.37,-0.09,-0.15,-0.09,4.87,-66.50,282.69,-7.37,-3.62,4.87,4,6
1772476431.584502,2524327,-0.26,-0.08,0.13,-165.50,-81.19,116.31,-2.00,-10.38,1.19,-0.02,0.08,0.28,4.69,-66.37,282.31,-9.31,-6.12,6.31,4,5
1772476431.624423,2524367,-0.43,0.17,0.19,-164.25,-81.56,116.19,-2.25,-10.25,1.06,-0.18,-0.02,-0.13,4.44,-66.12,281.81,-8.25,-8.00,9.25,4,5
1772476431.664926,2524408,-0.15,0.12,0.20,-163.19,-81.94,116.12,-1.06,-6.44,0.69,0.00,0.19,0.14,3.81,-65.75,281.19,-8.94,-9.13,10.00,3,4
1772476431.705207,2524448,-0.21,0.05,0.03,-162.44,-82.19,116.12,0.25,-4.00,-0.25,-0.21,0.00,-0.44,3.19,-65.44,280.62,-5.81,-8.94,12.88,4,3
1772476431.745190,2524488,0.05,0.17,0.04,-161.94,-82.37,116.06,-0.56,-7.00,0.44,0.06,-0.13,-0.20,2.56,-65.19,279.94,-9.69,-7.06,11.50,3,4
1772476431.784812,2524528,-0.31,-0.17,0.28,-161.19,-82.62,116.12,-1.00,-7.62,0.75,0.30,0.05,0.40,1.94,-64.87,279.19,-10.63,-10.44,8.06,3,4
1772476431.824571,2524568,-0.41,0.11,0.16,-160.00,-82.87,115.87,-4.81,-1.44,0.19,0.36,0.14,0.55,1.87,-64.75,278.87,-0.37,5.25,-0.81,3,4
1772476431.865927,2524609,-0.05,-0.22,-0.03,-160.94,-82.81,115.81,-2.62,8.44,-7.44,-0.04,0.02,-0.29,1.75,-64.94,278.87,-3.06,5.87,3.44,3,4
1772476431.905721,2524649,0.00,-0.20,0.13,-163.69,-82.62,115.94,-5.00,3.44,-5.31,-0.12,0.25,-0.02,1.87,-65.12,278.69,-5.62,2.19,-1.69,5,6
1772476431.946117,2524689,-0.18,-0.26,0.18,-164.81,-82.62,115.87,-5.44,-1.06,-2.00,-0.01,0.03,-0.18,2.19,-65.25,278.62,-4.56,1.94,-2.81,6,7
1772476431.985559,2524729,-0.19,-0.31,0.23,-164.94,-82.75,115.69,-6.87,-1.19,1.44,0.17,-0.10,0.15,2.62,-65.31,278.62,-5.44,3.56,-4.19,6,7
1772476432.025504,2524768,-0.38,-0.28,0.07,-164.50,-82.81,115.44,-9.75,3.75,2.50,0.05,-0.13,0.12,3.25,-65.50,278.75,-2.94,8.81,-5.75,6,8
1772476432.066572,2524809,-0.33,-0.19,-0.01,-164.19,-82.56,114.87,-14.88,10.88,4.50,-0.14,-0.10,-0.01,3.94,-65.75,278.94,0.88,6.00,-6.31,6,9
1772476432.106588,2524849,0.10,0.18,-0.03,-163.00,-82.06,113.94,-19.06,13.00,7.12,-0.10,-0.13,-0.22,4.37,-66.00,279.19,0.81,5.06,-2.37,6,9
1772476432.146415,2524890,0.28,0.53,-0.06,-161.44,-81.62,112.81,-17.37,6.12,5.37,0.03,-0.07,-0.17,4.62,-66.19,279.31,0.31,4.12,-2.00,6,9
1772476432.186426,2524929,0.01,0.73,-0.04,-159.87,-81.37,112.00,-11.75,0.75,4.81,0.00,-0.09,-0.10,4.87,-66.37,279.37,-0.56,4.19,-1.75,6,9
1772476432.226324,2524969,-0.01,0.54,-0.03,-158.19,-81.25,111.44,-4.06,0.88,2.44,0.00,-0.15,-0.07,5.06,-66.56,279.44,-0.13,4.12,-0.88,7,9
1772476432.266951,2525010,0.00,0.40,-0.07,-156.37,-81.12,111.00,1.44,-0.25,1.69,-0.11,-0.13,-0.10,5.19,-66.69,279.50,0.62,4.12,0.50,6,9
1772476432.307200,2525050,-0.15,0.30,0.01,-155.31,-81.06,110.94,5.25,-3.50,1.12,-0.11,-0.11,-0.08,5.19,-66.87,279.50,-1.00,2.50,1.25,4,7
1772476432.347215,2525090,-0.14,0.08,0.09,-154.62,-81.19,111.19,8.13,-4.00,0.06,-0.08,-0.05,-0.03,5.19,-66.94,279.37,-1.75,2.25,1.62,4,8
1772476432.387113,2525130,-0.14,-0.15,0.21,-154.56,-81.37,111.56,7.81,-5.25,-1.50,0.05,-0.03,-0.09,5.12,-67.00,279.25,-2.69,2.00,1.12,3,8
1772476432.427583,2525171,-0.30,-0.30,0.26,-154.56,-81.56,111.94,4.69,-3.44,-0.19,0.01,-0.09,0.05,5.12,-67.06,279.19,1.19,-0.44,1.12,3,9
1772476432.467799,2525211,-0.33,-0.22,0.10,-154.44,-81.75,112.12,-1.00,0.06,3.94,-0.01,-0.09,0.00,4.87,-67.12,279.19,6.12,2.37,0.31,3,8
1772476432.507942,2525251,-0.15,0.09,-0.04,-153.37,-81.69,111.81,-5.06,1.87,4.81,0.01,0.10,-0.02,4.69,-67.25,279.37,6.69,3.31,-1.87,3,8
1772476432.547671,2525291,0.01,0.40,-0.13,-152.62,-81.56,111.44,-2.94,2.19,1.50,0.01,0.01,-0.03,4.62,-67.37,279.62,6.31,1.50,-1.87,3,8
1772476432.587816,2525331,0.04,0.31,-0.11,-152.62,-81.50,111.44,3.12,-0.19,-0.94,-0.09,-0.03,-0.09,4.56,-67.44,279.81,3.19,0.13,-1.00,3,8
1772476432.627642,2525371,0.01,0.11,0.00,-152.75,-81.50,111.69,7.94,-3.56,-2.44,-0.09,-0.09,-0.14,4.50,-67.44,279.87,0.37,-1.00,1.81,2,9
1772476432.668617,2525412,-0.11,-0.10,0.08,-153.06,-81.69,112.37,8.94,-5.75,-1.87,-0.03,-0.15,-0.06,4.37,-67.44,279.81,-0.06,0.00,1.69,3,9
1772476432.708551,2525452,-0.25,-0.11,0.11,-153.06,-81.94,112.69,5.69,-5.81,-1.31,0.00,-0.11,-0.02,4.19,-67.44,279.75,-0.44,1.06,2.12,2,9
1772476432.748807,2525492,-0.21,-0.10,0.07,-153.00,-82.19,113.00,2.06,-2.69,-1.81,-0.02,-0.04,-0.08,4.06,-67.50,279.62,-0.75,0.44,2.25,2,9
1772476432.788715,2525532,-0.09,-0.04,0.03,-153.37,-82.31,113.12,-0.75,-1.69,-1.94,-0.02,-0.03,0.03,3.87,-67.56,279.56,-0.94,0.88,2.87,2,8
1772476432.828389,2525571,-0.09,0.00,0.02,-153.50,-82.37,113.12,-1.94,-2.69,-2.00,-0.01,0.01,0.00,3.62,-67.56,279.44,-0.81,1.56,2.69,4,8
1772476432.870318,2525612,-0.18,0.01,0.03,-153.62,-82.50,113.12,-1.50,-2.62,-2.25,0.01,0.00,0.02,3.44,-67.69,279.31,-0.19,0.88,2.37,3,7
1772476432.909261,2525652,-0.22,0.01,0.09,-153.75,-82.62,113.19,-1.12,-1.44,-1.12,-0.01,-0.03,0.09,3.19,-67.69,279.25,1.94,1.19,0.75,3,7
1772476432.949548,2525692,-0.08,-0.03,0.09,-153.87,-82.69,113.19,-0.44,-0.37,-0.88,-0.01,-0.07,-0.11,3.12,-67.75,279.25,1.00,2.19,0.62,3,7
1772476432.989536,2525732,-0.16,-0.01,0.07,-153.94,-82.69,113.19,-1.31,-0.50,-0.50,-0.08,-0.04,-0.04,3.06,-67.87,279.25,0.56,2.50,0.69,3,7
1772476433.029514,2525772,-0.11,-0.08,0.01,-154.12,-82.75,113.12,-2.25,-0.44,-2.12,-0.13,-0.10,-0.03,2.94,-67.94,279.19,-1.00,2.50,3.25,4,7
1772476433.070281,2525813,-0.12,-0.03,0.06,-154.50,-82.81,113.06,-4.94,-2.50,-1.94,-0.03,-0.01,-0.08,2.69,-68.06,279.00,-1.94,1.62,3.56,3,6
1772476433.110105,2525853,-0.21,-0.02,0.14,-154.44,-82.94,112.94,-6.25,-1.94,-1.75,0.00,-0.01,-0.07,2.44,-68.12,278.81,-1.50,0.81,2.62,4,6
1772476433.150195,2525893,-0.23,-0.05,0.18,-154.37,-83.06,112.69,-7.56,-0.44,-1.81,-0.03,0.00,-0.07,2.25,-68.19,278.69,-0.19,0.13,2.31,5,5
1772476433.189583,2525933,-0.26,0.00,0.17,-154.50,-83.06,112.44,-9.44,1.19,-1.50,-0.02,0.00,-0.06,2.06,-68.19,278.62,0.56,0.56,1.62,5,5
1772476433.230283,2525973,-0.23,0.11,0.15,-154.69,-83.06,112.06,-9.31,2.50,-1.87,-0.02,0.02,-0.07,1.94,-68.19,278.56,0.56,0.62,0.69,4,5
1772476433.270455,2526014,-0.11,0.12,0.05,-155.19,-83.00,111.75,-7.25,3.37,-2.44,-0.07,0.00,-0.09,1.81,-68.25,278.56,0.69,0.13,0.50,4,4
1772476433.310636,2526054,-0.08,0.09,0.04,-155.81,-83.00,111.50,-5.12,1.12,-2.25,-0.03,-0.07,-0.05,1.81,-68.25,278.56,-0.69,0.25,0.75,4,4
1772476433.350780,2526094,-0.05,0.03,0.00,-156.25,-83.00,111.37,-3.81,-0.69,-2.00,-0.02,-0.02,-0.15,1.75,-68.25,278.44,-2.62,-0.13,2.25,4,4
1772476433.390688,2526133,0.03,-0.08,-0.05,-156.44,-83.06,111.31,-3.94,-2.75,-1.44,-0.05,0.02,-0.13,1.62,-68.19,278.31,-3.12,-1.31,2.50,4,3
1772476433.430683,2526173,0.04,-0.03,-0.03,-177.25,-83.25,111.19,-5.44,-7.00,-0.88,-0.06,0.05,-0.10,1.50,-68.12,278.12,-2.50,-3.00,1.87,3,3
1772476433.471627,2526214,0.30,-0.43,-0.04,-177.25,-83.56,111.00,-7.94,-13.56,-0.50,-0.10,0.01,-0.21,1.37,-68.00,277.94,-3.81,-2.37,1.69,3,2
1772476433.511656,2526254,0.86,-1.03,-0.34,-177.19,-84.19,110.44,-24.62,-29.12,0.06,-0.12,0.16,-0.28,1.50,-67.94,277.81,-6.81,-4.62,-1.25,3,2
1772476433.551748,2526294,0.82,-1.21,-0.44,-177.19,-85.44,109.25,-45.50,-51.13,-4.81,-0.13,0.14,-0.38,1.81,-67.75,277.62,-8.31,-8.50,-0.81,2,3
1772476433.591603,2526334,0.76,-0.86,-0.20,-177.44,-87.12,107.37,-67.37,-70.94,-1.56,-0.11,-0.12,-0.17,2.06,-67.56,277.44,-6.00,-11.50,-3.56,2,3
1772476433.631105,2526374,0.04,0.05,0.26,-2.50,-86.81,104.56,-78.50,-83.75,2.69,0.07,-0.13,-0.20,2.44,-67.19,277.37,-7.44,-14.63,-2.19,2,3
1772476433.672077,2526415,-1.09,0.57,0.69,-2.44,-84.31,101.75,-74.50,-66.31,1.25,0.13,0.01,-0.27,2.94,-66.44,277.19,-15.19,-28.56,0.50,2,3
1772476433.711882,2526455,-0.65,0.93,0.82,-16.50,-82.19,99.12,-60.06,-50.69,0.62,0.19,0.03,0.55,3.44,-65.25,276.81,-16.25,-23.44,-1.69,2,3
1772476433.752094,2526495,-1.33,1.34,0.89,-11.44,-80.44,97.44,-38.38,-32.63,-2.50,0.07,-0.20,0.45,4.06,-64.50,276.62,-4.94,-10.94,-5.81,4,4
1772476433.792111,2526535,-0.90,0.88,0.35,-8.50,-79.37,96.50,-13.31,-16.87,-2.94,0.02,-0.28,0.15,4.75,-64.12,276.62,-7.62,-4.50,-2.81,6,6
1772476433.831934,2526575,-0.32,-0.28,0.23,-7.69,-78.87,96.25,-5.06,-10.06,4.31,-0.09,-0.32,0.22,5.37,-63.94,276.62,-8.00,-5.19,-4.62,6,6
1772476433.872730,2526616,-0.22,-0.09,0.09,-8.44,-78.50,95.75,-11.56,-7.00,6.50,0.14,-0.47,0.07,5.87,-63.81,276.56,-6.31,-0.37,2.12,6,7
1772476433.912677,2526656,-0.50,0.17,0.13,-8.50,-78.25,95.25,-12.81,-2.06,0.69,0.08,-0.23,0.26,5.94,-63.69,276.25,-9.81,-2.56,6.37,6,7
1772476433.952471,2526696,-0.22,0.32,0.03,-8.13,-78.25,94.81,-10.13,3.56,0.00,0.04,0.01,-0.07,5.87,-63.69,275.69,-10.25,4.62,10.94,7,7
1772476433.992487,2526736,-0.12,0.73,0.05,-8.06,-78.37,94.56,-2.19,1.94,2.31,-0.01,0.10,-0.03,5.44,-63.88,275.12,-6.25,2.31,8.00,7,7
1772476434.032399,2526775,-0.62,1.42,0.38,-8.88,-78.50,94.50,14.75,5.94,3.81,0.01,-0.02,-0.09,5.00,-64.00,274.69,-2.50,2.62,8.06,7,7
1772476434.073252,2526816,-0.47,1.48,0.43,-11.13,-78.81,95.12,42.00,16.12,7.94,-0.07,0.10,-0.11,4.44,-64.12,274.31,-0.19,1.31,7.69,7,7
1772476434.113175,2526856,-0.91,1.74,0.77,-17.12,-79.31,96.12,67.12,23.00,12.13,-0.06,0.14,-0.09,3.94,-64.12,274.19,3.44,-2.37,1.44,7,7
1772476434.152902,2526896,-0.57,1.01,0.98,-24.62,-80.12,98.19,94.06,35.69,10.44,0.04,0.00,0.00,3.69,-64.06,274.25,4.06,-2.12,-0.81,5,7
1772476434.193262,2526936,-0.11,-0.52,0.64,-34.88,-81.25,101.00,99.44,43.75,7.62,-0.07,-0.05,-0.11,3.69,-63.94,274.44,4.25,-2.37,-2.44,4,5
1772476434.233111,2526976,0.62,-1.38,0.05,-47.44,-82.37,103.81,78.00,40.06,2.62,-0.12,-0.11,-0.14,3.75,-63.94,274.62,6.31,1.50,-1.31,4,6
1772476434.274186,2527017,0.51,-1.34,-0.15,-5.69,-83.25,106.12,45.25,29.00,-6.25,0.00,-0.15,-0.50,3.62,-64.06,274.75,1.37,-0.81,3.06,3,6
1772476434.313985,2527057,0.28,-0.94,-0.09,-5.44,-83.94,107.69,18.19,21.44,-11.25,-0.09,0.00,-0.17,3.37,-63.88,274.69,-0.19,-5.12,3.50,3,7
1772476434.353898,2527097,0.09,-0.60,0.01,-5.00,-84.69,108.44,0.19,13.19,-13.13,-0.04,0.00,-0.12,3.12,-63.75,274.56,-0.50,-6.87,3.00,3,7
1772476434.393787,2527137,-0.32,-0.18,0.18,-4.50,-85.25,108.75,-9.81,10.56,-12.50,-0.04,0.03,0.03,2.87,-63.56,274.44,1.37,-3.37,2.44,2,6
1772476434.433752,2527177,-0.04,-0.08,0.13,-4.00,-85.81,108.81,-11.88,11.13,-10.69,0.01,0.01,0.07,2.62,-63.44,274.37,1.19,-1.56,1.62,3,6
1772476434.474880,2527218,-0.22,-0.02,0.12,-3.56,-86.31,108.81,-10.06,9.25,-10.25,-0.01,0.07,0.03,2.44,-63.38,274.37,0.81,-1.06,0.81,3,6
1772476434.514779,2527258,-0.23,0.02,0.09,-3.19,-86.75,108.81,-7.31,11.56,-9.38,0.00,0.03,0.04,2.44,-63.38,274.37,-0.62,-0.94,0.69,3,6
1772476434.554757,2527298,-0.10,-0.01,0.02,-177.06,-87.06,108.94,-4.12,13.19,-7.19,0.00,0.00,0.00,2.44,-63.31,274.31,-1.69,-0.19,-0.25,3,6
1772476434.594589,2527338,-0.10,-0.03,0.00,-177.31,-87.19,109.00,-1.75,12.50,-4.25,0.02,0.05,0.01,2.56,-63.31,274.31,-1.75,0.06,-1.44,3,6
1772476434.634370,2527378,-0.08,0.00,0.00,-177.44,-87.19,109.06,1.25,11.19,-2.44,0.03,0.00,0.03,2.75,-63.31,274.31,-1.19,-0.31,-1.75,5,6
1772476434.675718,2527419,-0.10,-0.04,-0.03,-177.50,-87.00,109.25,3.56,9.63,-0.69,0.02,-0.05,0.07,2.94,-63.31,274.37,-0.56,-0.88,-2.37,5,6
1772476434.715432,2527459,-0.18,0.02,0.00,-177.56,-86.81,109.37,4.56,10.06,1.06,0.06,-0.03,-0.04,3.19,-63.25,274.50,0.19,-0.56,-3.75,5,6
1772476434.755524,2527499,-0.13,0.05,-0.03,-177.50,-86.50,109.50,6.12,9.31,1.62,0.10,-0.06,0.03,3.44,-63.25,274.62,-0.37,1.56,-3.25,6,5
1772476434.795393,2527539,-0.16,0.04,-0.13,-177.44,-86.19,109.69,6.31,8.69,1.87,0.09,-0.02,0.04,3.81,-63.31,274.81,0.94,3.44,-6.00,6,5
1772476434.835258,2527579,-0.31,0.16,-0.11,-177.37,-85.87,109.87,7.00,10.06,0.75,-0.05,-0.02,0.33,4.25,-63.38,275.06,0.94,4.44,-5.06,5,6
1772476434.876678,2527619,-0.04,-0.03,-0.03,-177.44,-85.56,110.12,9.50,11.00,-2.56,-0.11,-0.08,-0.24,4.56,-63.56,275.25,-0.81,3.81,-3.25,6,9
1772476434.916372,2527659,0.06,-0.11,0.05,-177.50,-85.31,110.62,9.50,7.37,-0.75,-0.14,-0.03,-0.37,4.94,-63.69,275.37,-1.44,2.12,-2.87,6,10
1772476434.956366,2527699,0.00,-0.05,0.10,-177.50,-85.12,111.00,6.81,3.94,2.75,-0.05,-0.16,-0.36,5.19,-63.81,275.44,-2.69,-1.37,-0.75,7,12
1772476434.996343,2527739,-0.01,0.07,0.00,-177.44,-84.94,111.12,3.50,3.31,4.37,-0.12,0.01,-0.29,5.37,-63.75,275.31,-5.87,-4.94,1.00,8,15
1772476435.035886,2527779,0.24,0.12,-0.11,-177.25,-84.75,111.06,2.19,0.69,4.50,0.00,0.00,0.08,5.44,-63.63,275.19,-3.44,1.19,3.00,6,15
1772476435.077131,2527820,-0.08,-0.07,-0.19,-177.12,-84.69,111.06,1.81,-3.81,2.56,0.06,0.02,-0.29,5.25,-63.81,274.94,-3.56,3.94,2.50,6,15
1772476435.117196,2527860,-0.25,-0.12,0.20,-177.00,-84.75,111.00,-0.13,-1.12,2.00,-0.08,-0.31,-0.02,5.56,-63.88,274.87,-5.12,1.19,-0.50,8,16
1772476435.157029,2527900,-0.33,0.00,0.20,-176.94,-84.69,110.94,-1.81,2.62,0.50,-0.04,-0.23,0.05,5.81,-63.81,274.75,-8.81,-6.12,0.19,8,17
1772476435.197126,2527940,-0.25,-0.01,0.10,-176.94,-84.62,110.81,-2.75,3.56,0.44,-0.03,-0.14,0.11,6.00,-63.69,274.50,-6.06,-1.06,2.44,8,17
1772476435.236657,2527980,-0.15,0.04,0.07,-176.87,-84.50,110.62,-3.94,3.87,1.87,0.09,-0.16,-0.07,6.00,-63.63,274.25,-4.25,0.00,4.12,9,16
1772476435.277704,2528021,0.00,0.07,-0.05,-176.81,-84.31,110.37,-4.25,5.00,-0.56,-0.05,-0.06,-0.03,5.87,-63.63,274.00,-4.00,-0.69,3.56,8,14
1772476435.317747,2528061,0.12,0.02,-0.03,-176.87,-84.19,110.25,-3.75,1.50,-2.00,-0.03,-0.04,-0.08,5.75,-63.69,273.75,-4.56,1.37,3.19,8,13
1772476435.357936,2528101,-0.14,0.04,0.04,-176.94,-84.25,110.12,-4.87,-1.62,-0.75,-0.02,-0.04,-0.10,5.69,-63.75,273.50,-2.87,2.31,3.75,7,11
1772476435.397598,2528141,-0.06,0.08,0.02,-176.94,-84.31,109.94,-4.44,-1.44,0.00,-0.06,0.05,-0.07,5.44,-63.88,273.31,0.06,1.69,3.12,7,8
1772476435.437457,2528181,-0.15,0.11,0.09,-176.87,-84.37,109.75,-3.56,-3.75,0.50,-0.01,0.01,-0.07,5.25,-63.94,273.25,2.25,0.81,0.13,7,6
1772476435.478645,2528222,-0.19,0.10,0.15,-176.81,-84.50,109.62,-2.50,-2.37,1.19,-0.03,-0.06,-0.10,5.19,-63.94,273.37,3.69,0.13,-1.19,6,5
1772476435.518493,2528261,-0.10,0.10,0.12,-176.81,-84.56,109.37,-1.37,-1.94,0.50,-0.04,-0.09,-0.09,5.19,-64.00,273.50,3.12,0.00,-1.87,5,4
1772476435.558493,2528302,-0.17,0.07,0.10,-176.75,-84.62,109.37,0.13,-2.12,0.00,-0.10,-0.08,-0.09,5.31,-63.94,273.69,0.50,-1.62,-2.31,5,4
1772476435.598659,2528341,-0.17,-0.20,0.13,-176.81,-84.69,109.44,-0.56,-0.69,-2.56,-0.03,-0.16,-0.08,5.44,-63.94,273.69,-3.69,1.69,2.56,4,4
1772476435.638331,2528381,-0.13,-0.24,0.09,-176.94,-84.81,109.56,-4.69,0.13,-1.25,-0.10,0.00,0.02,5.44,-64.00,273.44,-2.19,1.19,2.37,4,4
1772476435.679337,2528422,-0.16,0.13,0.07,-176.94,-84.81,109.31,-6.69,-0.62,1.12,-0.03,-0.03,-0.08,5.31,-64.06,273.37,0.31,-0.31,1.69,3,4
1772476435.718916,2528462,-0.27,0.32,0.09,-176.87,-84.81,108.94,-4.37,-0.31,2.31,-0.01,0.05,0.05,5.19,-64.06,273.31,1.31,0.69,-1.00,4,4
1772476435.759250,2528502,-0.14,0.14,0.02,-176.75,-84.75,108.69,0.94,1.12,0.56,-0.07,-0.03,-0.01,5.25,-64.06,273.44,1.69,-0.44,-0.88,3,3
1772476435.799498,2528543,0.00,-0.16,-0.04,-176.75,-84.69,108.75,1.87,-1.50,-0.56,0.00,-0.19,-0.09,5.31,-64.06,273.50,0.19,0.13,-0.37,4,3
1772476435.839958,2528583,0.12,-0.28,-0.09,-176.75,-84.75,108.75,-1.62,-3.69,0.44,-0.01,-0.09,-0.10,5.37,-64.06,273.50,-0.50,-0.94,0.69,3,3
1772476435.880204,2528623,0.31,-0.24,-0.17,-176.75,-84.94,108.69,-6.31,-9.19,1.19,-0.02,-0.06,-0.04,5.31,-64.00,273.50,-0.25,-0.56,1.25,3,4
1772476435.920033,2528663,0.46,-0.07,-0.23,-176.69,-85.25,108.37,-10.25,-18.56,2.12,-0.12,-0.07,-0.14,5.25,-64.00,273.44,1.06,-0.44,0.44,3,4
1772476435.959872,2528703,0.48,-0.23,-0.27,-176.62,-85.75,107.87,-12.75,-32.31,4.25,-0.15,-0.05,-0.17,5.19,-64.00,273.44,0.06,-1.31,0.88,4,4
1772476435.999885,2528743,0.40,-0.66,-0.22,-176.37,-86.19,107.19,-22.37,-42.69,8.31,-0.09,-0.08,-0.10,5.12,-64.00,273.44,0.31,-2.19,0.56,4,4
1772476436.039637,2528783,0.12,-0.35,-0.05,-3.87,-86.00,105.94,-33.63,-50.81,8.75,-0.03,-0.07,-0.02,5.06,-63.88,273.44,0.75,-3.00,1.06,5,3
1772476436.080497,2528824,-0.44,-0.12,0.19,-4.19,-84.94,104.37,-40.56,-46.69,6.75,0.05,-0.23,0.13,5.00,-63.75,273.37,-1.31,-4.00,0.94,5,4
1772476436.120226,2528863,-0.05,-0.08,0.28,-4.31,-83.69,102.75,-45.00,-39.88,5.56,0.02,-0.11,0.03,5.00,-63.69,273.31,0.94,0.00,1.62,6,4
1772476436.160362,2528903,-0.21,0.08,0.30,-34.94,-82.37,101.00,-46.81,-38.13,2.87,0.00,-0.15,0.15,4.87,-63.69,273.31,1.06,-0.56,1.37,7,4
1772476436.200164,2528943,-0.59,0.30,0.35,-28.62,-81.19,99.44,-43.56,-28.06,2.06,0.07,-0.09,0.00,4.69,-63.69,273.25,0.75,2.94,3.44,7,5
1772476436.240124,2528983,-0.60,0.84,0.41,-24.50,-80.19,98.00,-33.56,-21.69,0.19,0.05,-0.15,0.14,4.50,-63.75,273.19,-0.56,0.94,2.37,9,6
1772476436.281191,2529024,-0.80,1.18,0.51,-21.69,-79.62,97.06,-15.69,-8.50,-3.12,0.04,-0.14,0.09,4.37,-63.81,273.06,-0.25,2.00,1.87,10,5
1772476436.321087,2529064,-0.32,1.01,0.35,-20.56,-79.50,96.94,5.31,1.06,-0.37,-0.08,-0.05,-0.11,4.31,-63.88,273.00,0.50,2.87,0.94,10,5
1772476436.360770,2529104,0.06,0.26,0.19,-21.44,-79.56,97.25,20.62,0.81,3.62,-0.12,-0.04,-0.33,4.25,-64.00,273.00,1.12,1.87,1.19,9,5
1772476436.401137,2529144,0.18,-1.10,-0.01,-23.19,-79.44,97.75,12.38,-2.62,7.94,-0.14,-0.05,-0.27,4.06,-64.06,272.94,0.69,0.62,2.50,9,5
1772476436.440901,2529184,0.30,-0.53,0.02,-24.00,-79.19,97.56,-14.94,-10.31,0.44,-0.03,0.00,-0.17,3.87,-64.12,272.87,2.19,-1.56,2.19,12,6
1772476436.481862,2529225,-0.16,0.28,0.24,-21.62,-78.81,96.87,-26.81,-13.19,-7.50,0.06,-0.13,-0.02,3.62,-64.12,272.87,3.00,-0.81,1.50,11,7
1772476436.521825,2529265,-0.27,0.83,0.32,-18.31,-78.50,96.44,-18.69,-7.94,-9.56,0.05,-0.13,-0.19,3.37,-64.12,272.87,1.56,0.69,2.31,11,7
1772476436.562200,2529305,-0.49,0.85,0.35,-15.81,-78.31,96.37,-2.00,-3.37,-6.62,-0.12,-0.23,-0.13,3.25,-64.12,272.81,-1.19,-1.56,2.12,11,7
1772476436.601993,2529345,-0.33,0.57,0.44,-16.62,-78.12,96.25,16.62,1.87,-0.25,-0.02,-0.07,-0.07,3.19,-64.12,272.69,-1.62,0.37,3.50,11,6
1772476436.641979,2529385,-0.68,0.40,0.41,-19.00,-77.94,96.62,31.00,4.75,6.44,-0.03,0.02,0.05,3.06,-64.19,272.56,0.81,-0.50,0.00,10,7
1772476436.682636,2529426,-0.40,-0.08,0.33,-22.19,-78.12,97.44,39.19,13.13,7.75,0.05,0.00,-0.05,3.00,-64.19,272.62,2.00,0.69,-0.44,11,7
1772476436.722099,2529466,-0.37,-0.26,0.31,-26.06,-78.56,98.37,38.69,17.31,5.44,0.00,0.03,0.03,3.00,-64.19,272.69,2.62,0.50,-2.37,11,7
1772476436.762325,2529506,-0.25,-0.45,0.16,-29.56,-79.12,99.37,31.94,19.56,3.50,0.00,0.00,-0.08,3.12,-64.19,272.87,3.44,0.50,-2.19,11,7
1772476436.802678,2529546,-0.31,-0.45,0.10,-33.44,-79.69,100.12,21.75,20.56,2.94,-0.01,-0.03,-0.05,3.12,-64.19,273.06,3.62,0.19,-1.69,10,6
1772476436.842568,2529586,0.05,-0.40,-0.04,-36.69,-80.37,100.62,12.69,20.87,0.13,-0.05,0.02,-0.09,3.06,-64.19,273.19,3.69,-0.31,-0.62,8,5
1772476436.883435,2529626,0.11,-0.39,-0.21,-39.81,-81.00,100.94,5.62,17.31,-2.06,-0.12,-0.04,-0.03,3.00,-64.19,273.25,2.06,-1.81,0.62,8,4
1772476436.923169,2529666,0.06,-0.31,-0.19,-42.06,-81.50,101.06,0.75,12.81,-2.44,0.01,-0.05,-0.02,2.81,-64.06,273.25,-0.37,-4.00,2.31,7,4
1772476436.964081,2529706,0.19,-0.22,-0.15,-43.63,-82.00,101.19,-0.81,9.81,-1.87,0.05,-0.01,-0.15,2.62,-63.94,273.12,-0.69,-1.50,3.06,7,4
1772476437.006931,2529746,0.16,-0.09,-0.06,-44.81,-82.25,101.25,-1.19,7.12,-1.06,0.07,0.00,-0.07,2.50,-63.94,273.00,-1.25,-0.44,1.37,6,4
1772476437.043202,2529786,-0.13,-0.11,0.06,-45.56,-82.44,101.19,0.00,3.25,-1.06,-0.04,0.00,-0.04,2.50,-63.94,272.94,-1.75,0.37,-0.13,5,3
1772476437.083731,2529827,-0.12,-0.18,0.00,-45.94,-82.56,101.25,0.06,1.81,1.31,-0.09,0.00,-0.08,2.56,-63.94,272.94,-0.56,0.56,-1.44,3,3
1772476437.123866,2529867,-0.21,-0.03,0.06,-46.38,-82.50,101.12,-1.56,-0.62,2.56,0.01,-0.01,-0.03,2.75,-63.94,273.00,0.62,-1.12,-2.12,3,3
1772476437.163829,2529907,-0.68,0.00,0.15,-46.69,-82.44,101.00,-1.37,-0.06,2.44,0.01,-0.12,0.03,2.87,-63.94,273.12,0.44,-0.81,-2.00,3,3
1772476437.204252,2529947,-0.22,0.05,-0.01,-47.56,-82.44,100.87,-1.75,3.81,1.44,-0.03,-0.16,0.03,3.06,-63.88,273.19,0.06,0.62,-1.50,4,4
1772476437.244612,2529988,-0.09,0.02,-0.08,-48.56,-82.50,100.81,-0.81,4.69,-0.25,-0.01,-0.12,-0.03,3.19,-63.94,273.25,-0.56,1.12,-0.69,3,4
1772476437.285131,2530028,0.01,-0.02,-0.07,-49.63,-82.62,100.75,-0.19,3.94,-0.44,-0.03,-0.09,-0.06,3.25,-64.00,273.25,-0.94,1.19,-0.25,3,5
1772476437.324857,2530068,-0.08,0.01,-0.06,-50.38,-82.75,100.75,-0.50,2.56,-0.06,-0.04,-0.10,-0.05,3.31,-64.06,273.25,-0.25,1.62,0.00,4,6
1772476437.364469,2530108,-0.03,0.06,0.00,-50.88,-82.75,100.75,-0.13,1.37,-0.56,0.00,-0.10,-0.10,3.37,-64.12,273.25,-0.13,1.69,-0.13,5,6
1772476437.404665,2530148,-0.17,0.00,0.00,-51.13,-82.81,100.69,0.37,0.56,-0.37,-0.03,-0.15,-0.10,3.37,-64.19,273.25,-0.06,1.81,0.62,5,7
1772476437.446417,2530188,-0.13,0.07,0.07,-51.38,-82.81,100.69,0.13,1.75,0.19,-0.04,-0.18,-0.08,3.44,-64.25,273.25,0.75,0.81,0.44,5,7
1772476437.485437,2530229,-0.11,0.06,0.02,-51.81,-82.87,100.69,0.37,2.19,0.31,-0.06,-0.10,-0.08,3.37,-64.31,273.25,1.19,1.19,0.44,5,7
1772476437.525221,2530268,-0.23,0.10,0.02,-52.31,-82.94,100.69,0.31,2.50,-0.37,-0.09,-0.09,-0.06,3.31,-64.37,273.31,1.69,0.81,0.37,5,8
1772476437.565074,2530308,-0.20,0.08,0.07,-52.94,-83.00,100.69,1.12,3.87,-2.00,0.00,-0.14,-0.17,3.25,-64.37,273.31,1.12,1.19,0.69,5,8
1772476437.605902,2530349,-0.07,-0.01,0.06,-5.44,-83.19,100.81,1.69,3.62,-1.75,-0.04,-0.11,-0.11,3.19,-64.44,273.37,0.81,0.81,0.19,5,8
1772476437.645745,2530389,0.06,-0.07,0.02,-5.37,-83.25,100.94,1.44,0.75,-0.50,-0.04,-0.10,-0.17,3.12,-64.44,273.37,1.00,0.69,0.31,5,8
1772476437.686116,2530429,-0.05,-0.07,0.02,-5.44,-83.25,100.94,1.50,-2.00,0.69,-0.04,-0.12,-0.12,3.12,-64.44,273.37,0.62,0.62,0.56,5,8
1772476437.725736,2530469,-0.09,-0.09,0.05,-5.44,-83.19,100.94,0.50,-2.87,0.44,-0.03,-0.10,-0.08,3.12,-64.50,273.37,0.06,0.56,0.19,4,7
1772476437.766120,2530509,-0.14,-0.09,0.13,-52.50,-83.12,100.94,-0.94,-4.31,0.25,-0.04,-0.02,-0.07,3.12,-64.50,273.37,0.81,0.06,-0.37,3,7
1772476437.806449,2530550,-0.28,0.04,0.16,-51.44,-83.00,100.94,-0.81,-1.19,-0.94,-0.05,0.00,-0.12,3.06,-64.50,273.44,0.88,0.19,0.06,3,7
1772476437.846122,2530589,-0.33,0.01,0.15,-51.06,-83.06,100.94,0.25,1.19,-1.44,-0.05,-0.03,0.00,3.06,-64.50,273.44,1.62,0.06,-0.81,3,6
1772476437.886827,2530630,-0.15,-0.01,0.06,-5.31,-83.12,101.00,0.81,3.12,-1.69,-0.06,-0.07,-0.07,3.06,-64.50,273.56,2.00,-0.19,-0.75,4,6
1772476437.926762,2530670,-0.18,-0.06,0.06,-5.19,-83.25,101.12,1.69,4.00,-2.94,-0.02,-0.08,-0.08,3.00,-64.50,273.56,0.25,-0.62,0.62,3,7
1772476437.966735,2530710,-0.07,-0.16,0.04,-5.06,-83.50,101.31,1.19,3.37,-3.06,-0.02,-0.11,-0.06,3.00,-64.44,273.56,-0.19,-0.94,0.37,3,6
1772476438.007274,2530750,-0.07,-0.14,0.02,-4.94,-83.62,101.44,-0.44,2.69,-2.50,-0.01,-0.06,-0.09,3.00,-64.44,273.56,-0.37,-0.37,0.44,3,6
1772476438.047426,2530790,-0.15,-0.09,0.04,-4.87,-83.81,101.50,-0.88,1.87,-2.37,-0.03,-0.09,-0.05,2.94,-64.44,273.56,-0.44,0.19,0.56,3,6
1772476438.087595,2530831,-0.05,-0.11,0.04,-4.75,-83.87,101.56,-0.69,1.44,-1.50,-0.06,-0.08,-0.08,2.94,-64.44,273.56,-0.19,0.37,0.13,2,6
1772476438.127843,2530871,-0.03,-0.08,0.03,-4.75,-83.94,101.56,-0.94,-0.75,0.19,-0.07,-0.10,-0.16,2.94,-64.44,273.56,-0.06,0.00,0.00,2,6
1772476438.167851,2530911,-0.13,-0.03,0.05,-4.75,-83.87,101.50,-0.81,-1.87,1.44,-0.03,-0.12,-0.13,2.94,-64.44,273.56,-0.25,-0.13,0.50,2,7
1772476438.208127,2530951,-0.08,0.04,0.05,-4.81,-83.81,101.37,-0.94,-2.19,1.50,-0.03,-0.12,-0.06,2.94,-64.37,273.56,-0.13,-0.50,0.25,4,8
1772476438.248222,2530991,-0.24,0.03,0.07,-4.87,-83.69,101.31,-0.44,-3.19,0.69,-0.04,-0.12,-0.06,2.94,-64.37,273.56,-0.19,-0.19,0.25,5,9
1772476438.288762,2531031,-0.17,-0.04,0.04,-4.87,-83.62,101.25,-0.69,-1.37,-0.13,-0.06,-0.14,-0.09,2.94,-64.37,273.56,-0.31,0.06,0.44,5,8
1772476438.328135,2531071,0.00,-0.09,0.01,-4.87,-83.62,101.19,-1.06,-1.19,0.00,-0.07,-0.18,-0.19,2.94,-64.37,273.56,-0.06,-0.94,0.69,5,8
1772476438.368349,2531111,-0.11,-0.03,0.04,-4.87,-83.56,101.12,-2.25,-1.00,0.88,-0.07,-0.14,-0.12,2.87,-64.37,273.50,0.37,-0.69,0.75,5,8
1772476438.408484,2531152,-0.03,0.00,0.00,-4.87,-83.50,101.00,-2.25,-1.37,0.88,-0.12,-0.10,-0.06,2.81,-64.37,273.50,1.31,-0.56,0.75,5,8
1772476438.448830,2531192,-0.13,-0.09,0.12,-4.87,-83.50,100.94,-3.12,-1.25,-0.19,-0.02,-0.13,-0.15,2.62,-64.37,273.50,1.25,-0.25,0.94,5,9
1772476438.489133,2531232,-0.18,0.17,0.21,-4.87,-83.44,100.81,-5.31,-4.19,-2.12,0.04,-0.11,-0.06,2.56,-64.37,273.44,0.06,-0.62,0.37,6,9
1772476438.528939,2531272,-0.14,0.20,0.39,-4.75,-83.37,100.69,-5.75,-4.69,-4.75,-0.05,-0.05,-0.09,2.56,-64.37,273.44,0.00,-0.81,-0.62,6,8
1772476438.568664,2531312,-0.22,-0.03,0.23,-4.50,-83.37,100.75,-7.44,-5.44,-8.44,-0.18,0.01,-0.25,2.69,-64.37,273.56,4.12,1.06,-4.62,7,8
1772476438.609113,2531352,0.00,-0.13,0.01,-4.12,-83.44,100.75,-11.81,-5.62,-7.87,-0.07,-0.06,-0.30,2.87,-64.50,273.81,3.25,2.69,-2.37,6,6
1772476438.649120,2531392,0.29,-0.32,-0.15,-3.75,-83.37,100.56,-15.00,-11.06,-6.62,-0.08,-0.09,-0.29,3.00,-64.62,274.00,2.31,-0.37,-0.81,5,5
1772476438.689585,2531433,0.35,-0.43,-0.28,-30.62,-83.06,100.25,-20.19,-20.56,-2.37,-0.16,-0.22,-0.16,3.00,-64.62,274.06,1.75,-0.69,0.75,5,5
1772476438.729552,2531472,0.08,-0.27,-0.25,-25.62,-82.37,99.69,-25.37,-27.75,1.56,-0.02,-0.09,-0.14,2.94,-64.69,274.12,1.50,-1.00,0.50,6,5
1772476438.769190,2531513,-0.56,0.02,0.03,-22.12,-81.44,98.75,-28.06,-21.50,1.62,0.12,-0.22,0.10,2.87,-64.62,274.12,0.94,-1.50,2.31,6,4
1772476438.809444,2531553,-0.59,0.40,0.28,-19.81,-80.81,97.75,-26.56,-10.63,0.50,0.07,-0.28,0.21,2.75,-64.50,274.06,1.50,-0.56,3.31,7,4
1772476438.849421,2531593,-0.40,0.51,0.11,-18.25,-80.56,96.94,-19.87,-2.56,-1.31,0.03,-0.19,0.07,2.56,-64.50,274.06,1.94,2.50,3.94,7,3
1772476438.890321,2531633,-0.08,0.37,-0.08,-17.37,-80.50,96.44,-11.44,-0.75,-1.75,-0.03,-0.12,-0.06,2.31,-64.56,274.00,2.37,1.50,2.94,7,2
1772476438.929915,2531673,0.00,0.25,-0.11,-16.56,-80.50,96.19,-4.56,-3.31,-1.06,-0.04,-0.08,-0.06,2.06,-64.62,273.94,0.94,0.06,2.56,7,2
1772476438.969850,2531713,-0.09,0.23,-0.01,-16.31,-80.31,96.06,0.50,-5.19,-0.19,0.01,-0.10,-0.09,1.81,-64.62,273.87,1.06,0.19,2.56,6,2
1772476439.009924,2531753,-0.21,0.15,0.07,-16.19,-80.12,96.00,3.56,-5.25,0.31,0.02,-0.12,-0.08,1.62,-64.62,273.81,1.12,0.37,1.87,6,2
1772476439.050350,2531793,-0.23,0.13,0.19,-16.25,-79.94,96.12,4.94,-2.12,0.37,-0.09,-0.17,-0.10,1.44,-64.62,273.75,0.94,-0.44,2.37,7,2
1772476439.090923,2531834,-0.11,0.15,0.30,-16.37,-79.81,96.25,5.19,-2.62,-0.13,-0.05,-0.02,-0.13,1.25,-64.69,273.69,0.19,0.37,3.19,7,2
1772476439.130690,2531874,-0.57,0.30,0.45,-16.37,-79.69,96.44,5.19,-1.56,-2.25,-0.01,-0.04,-0.03,1.06,-64.69,273.56,0.44,1.25,1.81,7,3
1772476439.170445,2531914,-0.81,0.45,0.38,-15.88,-79.75,96.75,7.81,8.13,-5.87,-0.02,-0.07,0.06,0.94,-64.75,273.62,6.75,2.81,-2.81,7,4
1772476439.211029,2531954,-0.25,0.90,0.36,-15.69,-80.31,97.37,21.94,21.12,-7.50,-0.11,-0.06,-0.18,0.88,-64.87,273.87,4.44,4.00,1.25,8,5
1772476439.250950,2531994,-0.45,0.79,0.41,-16.81,-81.25,98.56,41.31,21.56,-4.87,0.02,0.04,-0.12,0.56,-65.00,273.87,3.12,-0.75,0.56,9,6
1772476439.291404,2532035,-0.45,0.34,0.46,-19.50,-82.12,100.31,57.19,28.62,-3.69,-0.02,0.12,-0.17,0.44,-64.94,274.00,3.56,-0.31,0.31,10,7
1772476439.331155,2532074,0.09,-0.44,0.29,-2.75,-83.31,102.50,60.44,30.87,-2.12,-0.07,0.02,-0.16,0.31,-64.94,274.06,4.25,0.62,-1.44,11,8
1772476439.371391,2532114,0.53,-1.18,-0.07,-2.87,-84.25,104.44,44.88,20.81,-0.88,-0.08,-0.05,-0.29,0.25,-65.00,274.31,6.56,-0.56,-3.50,11,8
1772476439.411870,2532155,0.28,-1.15,-0.06,-2.94,-84.81,105.81,20.56,10.44,-2.00,-0.05,-0.09,-0.28,0.31,-65.06,274.62,6.75,-1.12,-4.44,10,8
1772476439.451703,2532195,-0.06,-0.67,0.01,-2.69,-85.25,106.44,-3.37,4.50,-5.19,-0.04,-0.17,-0.19,0.44,-65.06,274.87,4.56,-1.62,-1.81,9,8
1772476439.492427,2532235,-0.11,-0.32,0.06,-2.44,-85.50,106.37,-12.75,2.75,-5.87,-0.04,-0.11,-0.06,0.37,-65.00,275.06,1.00,-2.75,-0.25,8,8
1772476439.531836,2532275,-0.10,0.02,0.09,-2.19,-85.69,106.12,-13.25,2.00,-6.75,-0.02,-0.13,0.00,0.37,-64.94,275.06,-0.56,-2.56,1.00,7,7
1772476439.571865,2532315,-0.16,0.06,0.09,-1.87,-85.94,105.94,-9.88,3.06,-6.12,0.00,-0.03,-0.04,0.31,-64.87,274.94,-2.00,-1.50,1.50,6,6
1772476439.612211,2532355,-0.11,0.02,0.00,-1.69,-86.12,105.81,-6.06,3.81,-2.37,-0.02,0.00,-0.01,0.31,-64.81,274.87,-1.31,-1.56,0.44,5,5
1772476439.652491,2532395,0.14,-0.02,-0.09,-1.62,-86.25,105.81,-4.50,1.62,-1.12,-0.04,-0.04,-0.10,0.37,-64.75,274.87,-1.06,-1.87,-0.44,4,4
1772476439.693053,2532436,0.12,-0.13,-0.21,-1.56,-86.25,105.69,-4.25,-4.31,-0.69,-0.02,-0.11,0.00,0.37,-64.69,274.81,-1.94,-1.25,0.81,2,3
1772476439.732677,2532476,0.11,-0.26,-0.29,-1.50,-86.12,105.69,-4.94,-8.63,-0.50,0.03,-0.18,0.13,0.37,-64.62,274.69,-4.25,0.25,4.12,1,2
1772476439.772591,2532516,0.37,-0.49,-0.33,-1.37,-85.87,105.62,-8.81,-17.25,0.62,-0.04,-0.06,0.06,0.25,-64.62,274.37,-5.75,1.56,6.50,1,2
1772476439.812993,2532556,0.18,-0.45,-0.19,-1.25,-85.31,105.19,-16.56,-19.44,6.62,-0.04,-0.02,-0.10,0.00,-64.69,274.06,-4.25,1.69,3.87,1,2
1772476439.853145,2532596,0.45,-0.79,-0.22,-1.44,-84.44,104.19,-28.00,-28.00,11.31,-0.10,0.04,-0.24,-0.06,-64.75,273.81,-1.06,3.50,0.56,1,2
1772476439.893487,2532637,0.28,-0.30,-0.03,-15.56,-83.06,102.56,-43.38,-41.50,13.63,0.03,-0.08,-0.08,-0.13,-65.00,273.81,1.87,2.75,-1.19,1,3
1772476439.933038,2532676,-0.50,0.15,0.42,-14.25,-81.44,100.56,-46.63,-35.81,9.44,0.16,-0.25,0.12,0.00,-65.00,273.94,0.81,2.62,-0.75,2,2
1772476439.973270,2532716,-0.44,0.21,0.45,-12.50,-80.19,98.75,-45.63,-24.81,6.00,0.05,-0.18,-0.01,0.13,-65.12,274.00,0.19,6.44,-0.37,4,5
1772476440.013842,2532757,-0.21,0.58,0.35,-10.94,-79.25,97.12,-41.19,-21.50,5.06,-0.02,-0.14,-0.15,0.19,-65.37,274.06,-0.56,5.12,0.69,4,5
1772476440.053741,2532797,-0.29,0.56,0.46,-9.88,-78.50,95.75,-28.37,-14.75,7.12,-0.02,-0.12,-0.12,0.19,-65.56,274.06,-0.81,4.37,0.88,4,4
1772476440.094332,2532837,-0.28,0.54,0.44,-9.94,-77.94,94.69,-18.00,-11.19,7.94,-0.11,-0.12,-0.28,0.13,-65.75,273.94,-3.37,5.12,3.44,4,4
1772476440.133873,2532877,-0.33,0.44,0.45,-11.25,-77.25,93.75,-10.50,-9.19,6.25,-0.07,0.05,-0.14,0.00,-66.00,273.69,-4.56,2.69,4.12,4,4
1772476440.173657,2532917,-0.37,0.36,0.47,-12.06,-76.75,93.12,-5.06,-4.69,2.62,0.00,0.06,-0.15,-0.06,-66.12,273.37,-4.50,2.25,3.00,5,4
1772476440.214302,2532958,-0.37,0.24,0.31,-12.56,-76.50,92.81,-1.00,-1.06,2.19,-0.08,0.04,0.00,-0.13,-66.19,273.25,0.62,1.62,-1.00,5,4
1772476440.254446,2532998,-0.20,0.24,0.18,-13.13,-76.44,92.62,2.25,2.25,2.44,-0.03,-0.02,-0.28,-0.06,-66.25,273.37,2.06,2.25,-1.75,5,4
1772476440.294540,2533038,0.03,0.10,0.10,-13.81,-76.50,92.56,5.56,1.69,2.44,-0.08,-0.14,-0.18,0.00,-66.31,273.50,1.00,0.69,-1.75,5,4
1772476440.334319,2533078,0.12,0.03,0.09,-14.56,-76.44,92.62,6.50,-2.31,4.00,-0.15,-0.16,-0.35,0.19,-66.37,273.62,0.37,1.06,-2.06,4,5
1772476440.374501,2533118,-0.12,0.02,0.11,-15.31,-76.31,92.62,6.25,-4.50,4.00,-0.10,-0.05,-0.16,0.44,-66.50,273.69,-1.81,-0.88,-0.37,3,2
1772476440.414906,2533158,-0.32,0.01,0.24,-15.81,-76.06,92.56,4.87,-2.81,2.31,0.00,-0.11,0.00,0.50,-66.50,273.62,-2.06,-2.12,0.56,3,2
1772476440.454954,2533198,-0.32,0.09,0.14,-16.19,-76.00,92.56,3.25,-0.19,1.87,0.08,-0.01,0.23,0.56,-66.44,273.56,1.25,0.19,-2.31,3,3
1772476440.495366,2533239,-0.20,0.20,0.02,-16.56,-76.00,92.62,3.81,3.50,-0.44,-0.07,-0.20,-0.19,0.69,-66.56,273.81,4.19,7.06,0.13,2,3
1772476440.535361,2533278,-0.10,0.10,0.07,-16.81,-76.12,92.81,6.50,2.25,-2.12,-0.05,-0.12,-0.08,0.62,-66.62,273.81,-0.62,-1.37,0.56,2,3
1772476440.575228,2533318,-0.30,0.08,0.11,-16.94,-76.25,93.06,8.38,0.94,-1.31,0.00,-0.19,-0.01,0.69,-66.56,273.81,-0.75,-1.87,0.50,2,4
1772476440.615500,2533359,-0.60,0.30,0.27,-17.31,-76.37,93.37,12.38,7.06,-0.94,0.03,-0.15,0.12,0.69,-66.50,273.75,-0.06,-2.19,1.37,2,4
1772476440.655489,2533399,-0.73,0.68,0.35,-18.31,-76.75,93.69,21.25,18.50,-0.25,0.00,-0.16,0.04,0.56,-66.44,273.75,1.81,-0.69,2.25,2,3
1772476440.696092,2533439,-0.58,0.87,0.53,-20.81,-77.62,94.50,38.19,29.31,2.31,-0.04,-0.09,-0.13,0.37,-66.37,273.69,-1.00,-2.12,3.12,2,3
1772476440.735697,2533479,-0.55,0.59,0.57,-25.50,-78.56,95.69,52.63,33.75,3.69,-0.06,0.13,-0.37,0.13,-66.37,273.50,-2.19,-1.75,4.19,2,3
1772476440.775427,2533519,0.06,-0.26,0.26,-31.50,-79.69,97.19,53.38,32.75,3.37,0.00,0.12,-0.08,0.00,-66.19,273.44,2.44,-3.94,-3.00,2,3
1772476440.816436,2533560,0.70,-0.75,-0.20,-37.56,-80.56,98.62,38.94,20.44,-0.88,-0.05,0.03,-0.12,0.25,-66.19,273.69,5.06,-1.62,-5.06,4,4
1772476440.856648,2533600,0.06,-0.87,-0.23,-40.81,-81.12,99.81,19.75,10.94,-5.62,-0.04,-0.13,-0.21,0.44,-66.06,274.00,4.44,-3.62,-2.31,5,5
1772476440.896665,2533640,0.03,-0.58,-0.16,-41.56,-81.56,100.44,3.81,4.37,-6.87,0.03,-0.13,-0.04,0.44,-65.87,274.12,0.50,-4.69,0.56,5,6
1772476440.936561,2533680,0.02,-0.26,-0.10,-40.81,-81.81,100.62,-3.75,2.44,-6.81,0.04,-0.07,-0.02,0.44,-65.75,274.12,0.62,-1.62,0.88,6,5
1772476440.976229,2533720,0.03,-0.19,-0.06,-39.44,-82.06,100.75,-3.94,1.06,-7.56,0.03,0.00,-0.03,0.37,-65.69,274.12,-0.56,-0.50,0.75,6,5
1772476441.017129,2533760,-0.22,-0.16,-0.04,-38.00,-82.19,100.87,-2.94,0.81,-2.94,-0.05,0.00,0.05,0.37,-65.69,274.12,-0.56,-0.62,0.69,6,5
1772476441.057590,2533800,-0.19,-0.13,0.02,-37.19,-82.31,100.94,-2.62,-0.31,-3.12,-0.03,-0.01,-0.05,0.37,-65.69,274.06,-1.00,-0.19,0.37,7,5
1772476441.097753,2533841,-0.15,-0.10,0.03,-36.31,-82.37,101.00,-2.00,0.37,-1.87,0.00,-0.02,-0.04,0.37,-65.69,274.06,-1.06,-0.25,-0.13,6,5
1772476441.137884,2533881,-0.07,-0.11,0.02,-35.88,-82.44,101.00,-1.06,-0.69,-0.37,0.00,0.00,-0.07,0.44,-65.69,274.00,-1.12,-0.13,-0.37,7,5
1772476441.177541,2533920,0.00,-0.13,-0.06,-35.63,-82.37,101.00,-1.19,-2.06,0.44,-0.02,-0.01,-0.07,0.50,-65.69,274.00,-0.94,-0.37,-0.62,8,5
1772476441.218320,2533961,0.19,-0.16,-0.16,-35.06,-82.31,100.94,-2.44,-5.25,0.94,-0.05,-0.02,-0.07,0.56,-65.69,274.00,-0.37,-0.13,-0.75,6,5
1772476441.258104,2534001,0.42,-0.55,-0.25,-33.81,-82.12,100.87,-6.62,-12.63,1.69,-0.07,-0.04,-0.07,0.62,-65.75,274.00,-0.56,-0.25,-0.56,5,3
1772476441.298529,2534041,0.49,-0.72,-0.25,-31.37,-81.50,100.50,-17.69,-25.06,2.50,-0.07,-0.04,-0.12,0.69,-65.75,273.94,-1.81,-0.13,0.62,6,3
1772476441.337907,2534081,0.36,-0.60,-0.18,-26.94,-80.50,99.75,-31.00,-37.75,1.56,0.01,-0.10,-0.09,0.75,-65.75,273.87,-3.06,-1.12,1.31,7,2
1772476441.377849,2534121,-1.02,-0.05,0.41,-22.44,-79.12,98.69,-37.56,-37.38,1.62,0.12,-0.29,0.19,0.75,-65.69,273.75,-3.25,-1.44,3.31,8,3
1772476441.418416,2534162,-0.89,0.37,0.59,-19.19,-78.19,97.44,-35.56,-12.44,-1.25,0.05,-0.16,0.14,0.50,-65.69,273.50,-2.37,0.56,3.06,8,4
1772476441.458675,2534202,-0.63,0.47,0.35,-17.31,-77.81,96.44,-25.81,-4.44,0.44,-0.08,-0.03,-0.03,0.44,-65.69,273.44,-0.81,3.69,2.44,8,4
1772476441.498752,2534242,-0.35,0.51,0.20,-16.50,-77.75,95.69,-15.31,-0.37,1.81,0.00,0.00,-0.06,0.25,-65.87,273.31,-1.31,3.19,1.50,9,4
1772476441.538524,2534282,-0.20,0.49,0.17,-16.56,-77.69,95.19,-5.87,1.87,1.94,0.00,-0.02,-0.09,0.31,-65.94,273.25,-1.50,1.94,-0.19,8,4
1772476441.578323,2534322,-0.57,0.53,0.21,-17.56,-77.62,94.87,5.37,5.37,3.00,0.02,-0.11,-0.09,0.37,-66.00,273.31,-0.37,1.50,-1.44,8,3
1772476441.619023,2534362,-0.60,0.88,0.33,-18.87,-77.81,94.94,20.87,15.13,3.75,-0.04,-0.17,-0.10,0.56,-66.06,273.37,-0.13,0.75,-0.62,7,2
1772476441.659120,2534402,-0.16,0.56,0.32,-21.87,-78.37,95.56,35.38,16.69,7.69,-0.08,-0.09,-0.21,0.69,-66.12,273.37,0.56,0.56,-0.62,7,2
1772476441.699538,2534443,-0.04,0.22,0.27,-26.37,-78.75,96.25,42.69,17.94,9.94,-0.02,-0.02,-0.15,0.81,-66.12,273.50,1.81,-0.62,-2.37,8,4
1772476441.738994,2534482,0.26,-0.07,0.13,-31.50,-79.12,97.19,42.31,11.19,7.12,0.04,-0.04,-0.14,0.94,-66.12,273.69,3.31,0.88,-4.25,9,6
1772476441.779058,2534522,0.21,-0.44,-0.18,-34.81,-79.31,98.25,36.00,5.56,3.06,-0.06,0.01,-0.20,1.25,-66.19,273.87,-0.62,0.62,-5.31,9,5
1772476441.819962,2534563,0.00,-0.81,-0.11,-36.00,-79.31,99.06,17.87,-3.06,-1.94,-0.07,-0.03,-0.18,1.75,-66.31,274.06,-2.25,3.94,-4.94,9,5
1772476441.860079,2534603,-0.27,-0.63,0.17,-35.69,-79.31,99.62,3.12,-0.56,-2.81,-0.06,-0.14,-0.09,2.31,-66.44,274.19,-1.62,1.31,-2.94,9,5
1772476441.900679,2534644,-0.29,-0.42,0.14,-35.06,-79.37,99.75,-6.12,0.00,-1.00,-0.17,-0.18,-0.05,2.62,-66.44,274.25,-0.69,-0.50,-0.25,9,5
1772476441.939871,2534683,-0.31,-0.29,0.14,-34.13,-79.44,99.75,-11.06,1.69,0.50,0.01,-0.17,-0.12,2.62,-66.44,274.19,-1.75,-1.06,2.75,10,6
1772476441.979599,2534723,-0.12,-0.01,0.07,-33.94,-79.50,99.31,-11.94,2.31,2.19,0.00,0.03,-0.06,2.44,-66.37,274.00,-1.31,-0.88,3.62,10,6
1772476442.020062,2534764,-0.08,0.13,0.00,-34.06,-79.50,98.87,-10.63,1.37,1.62,0.04,0.05,0.02,2.19,-66.37,273.87,0.19,-1.19,1.94,10,6
1772476442.060408,2534804,-0.16,0.25,0.02,-34.19,-79.50,98.50,-6.75,2.00,0.25,-0.01,0.01,0.03,2.00,-66.31,273.81,1.44,-0.81,0.50,10,7
1772476442.100947,2534844,-0.22,0.25,0.13,-34.38,-79.56,98.31,-1.62,3.37,-0.56,0.00,-0.06,0.01,1.94,-66.31,273.87,1.62,-0.13,-0.81,7,5
1772476442.140309,2534884,-0.24,0.19,0.14,-34.94,-79.69,98.31,3.69,5.44,-1.12,0.00,-0.06,-0.06,2.00,-66.31,273.94,1.37,0.37,-1.87,6,4
1772476442.180452,2534924,-0.10,0.05,0.07,-35.69,-79.87,98.50,6.25,6.12,-1.44,-0.06,-0.13,-0.10,2.12,-66.31,274.06,0.31,0.44,-1.31,5,4
1772476442.221369,2534964,0.00,-0.12,0.03,-36.44,-80.06,98.87,6.25,2.62,0.00,-0.04,-0.12,-0.18,2.37,-66.31,274.12,-0.69,-0.37,-1.12,5,3
1772476442.261515,2535004,0.12,-0.05,-0.08,-36.75,-80.06,99.06,4.44,-3.62,1.31,-0.05,-0.09,-0.08,2.44,-66.31,274.19,-1.25,-1.69,-0.50,4,3
1772476442.301791,2535045,-0.16,0.05,-0.01,-36.38,-79.87,99.19,5.37,-8.00,0.81,-0.01,-0.08,-0.01,2.56,-66.25,274.12,-1.75,-2.19,-0.13,3,3
1772476442.341407,2535085,-0.42,-0.06,0.06,-35.88,-79.62,99.31,5.44,-3.37,0.75,0.04,-0.11,-0.01,2.62,-66.19,274.06,-1.00,-1.19,-0.13,2,3
1772476442.381179,2535124,-0.18,-0.17,0.05,-35.94,-79.62,99.44,2.69,1.44,-0.62,-0.01,-0.12,-0.08,2.62,-66.12,274.06,-0.31,0.25,-0.37,2,3
1772476442.421892,2535165,-0.06,-0.14,0.01,-35.94,-79.69,99.56,-0.19,1.06,-0.50,-0.05,-0.13,-0.13,2.69,-66.19,274.12,0.13,0.50,-0.13,2,3
1772476442.461927,2535205,-0.23,-0.03,0.05,-36.00,-79.69,99.50,-1.87,1.87,0.37,-0.06,-0.12,-0.06,2.75,-66.19,274.12,-0.06,0.37,0.50,2,3
1772476442.502229,2535246,-0.14,0.00,0.02,-36.13,-79.75,99.37,-2.31,1.62,0.31,-0.03,-0.10,-0.05,2.75,-66.25,274.12,-0.19,-0.19,0.62,2,4
1772476442.541803,2535285,-0.14,0.05,0.03,-36.25,-79.81,99.37,-1.81,1.12,0.56,0.01,-0.06,-0.04,2.75,-66.19,274.12,0.13,-0.13,0.62,2,4
1772476442.581708,2535325,-0.20,0.12,0.06,-36.38,-79.87,99.31,-0.88,2.06,-0.31,-0.03,-0.06,-0.02,2.75,-66.19,274.12,0.19,-0.94,0.00,2,4
1772476442.622578,2535366,-0.09,-0.02,0.00,-36.63,-80.00,99.37,-0.37,2.81,-1.31,0.05,-0.02,0.00,2.75,-66.19,274.12,0.62,0.88,-0.31,3,4
1772476442.662335,2535406,-0.18,0.00,0.02,-36.75,-80.12,99.44,0.37,3.19,-1.75,-0.01,-0.04,0.00,2.81,-66.25,274.25,1.75,2.12,-1.94,4,5
1772476442.702946,2535446,-0.18,0.01,0.04,-37.00,-80.25,99.50,2.31,3.94,-1.06,-0.01,-0.10,-0.05,2.94,-66.37,274.31,1.37,2.37,-1.44,4,5
1772476442.742362,2535486,0.00,-0.04,0.05,-37.38,-80.37,99.62,3.31,3.44,-1.50,-0.06,-0.08,-0.14,3.00,-66.44,274.37,0.75,2.00,-1.12,4,5
1772476442.782342,2535526,-0.01,-0.09,0.02,-37.63,-80.50,99.75,3.31,1.19,-1.12,-0.12,-0.04,-0.12,3.12,-66.50,274.44,0.81,0.50,-0.75,4,6
1772476442.823482,2535566,-0.04,-0.19,0.05,-37.38,-80.50,100.00,1.31,-2.62,-1.31,-0.10,-0.13,-0.19,3.19,-66.50,274.44,-0.75,-0.62,0.19,5,6
1772476442.863216,2535607,0.00,-0.24,0.04,-36.50,-80.44,100.06,-2.69,-5.31,0.50,0.00,-0.08,-0.11,3.19,-66.56,274.37,-1.12,-1.12,0.88,4,7
1772476442.903740,2535647,-0.30,0.00,0.15,-35.56,-80.25,99.94,-5.56,-4.69,0.94,0.00,-0.11,-0.07,3.25,-66.50,274.37,-0.75,-0.62,0.69,5,7
1772476442.943132,2535686,-0.26,0.06,0.17,-35.00,-80.12,99.75,-5.87,-1.81,0.75,-0.05,-0.12,-0.05,3.25,-66.50,274.37,-0.31,0.25,0.81,6,7
1772476442.983016,2535726,-0.12,0.12,0.07,-34.88,-80.06,99.50,-5.06,-0.81,1.31,-0.07,-0.06,-0.07,3.25,-66.50,274.37,1.56,-0.56,0.31,7,7
1772476443.024145,2535767,-0.16,0.16,0.03,-34.88,-80.00,99.31,-2.69,-1.81,1.19,-0.01,-0.07,-0.02,3.25,-66.50,274.37,0.50,-0.62,-0.37,6,6
1772476443.064061,2535807,-0.22,0.02,0.04,-34.75,-79.87,99.25,-1.12,-3.00,0.25,-0.04,-0.13,0.02,3.25,-66.50,274.37,0.25,-0.50,-0.06,6,5
1772476443.104279,2535848,-0.14,-0.11,-0.02,-34.38,-79.81,99.19,-1.37,-1.56,0.00,0.01,-0.14,0.00,3.25,-66.50,274.37,0.56,0.25,0.13,6,5
1772476443.143772,2535887,0.06,-0.25,-0.11,-34.06,-79.75,99.12,-3.56,-2.25,0.56,-0.04,-0.09,-0.07,3.31,-66.50,274.37,0.56,0.19,0.37,6,4
1772476443.184130,2535927,0.21,-0.37,-0.16,-33.50,-79.62,99.00,-6.69,-5.81,1.75,-0.02,-0.08,-0.08,3.25,-66.50,274.37,0.00,-0.06,1.12,7,4
1772476443.224602,2535968,-0.07,-0.18,-0.06,-32.13,-79.31,98.56,-13.88,-13.38,1.06,0.04,-0.06,0.02,3.19,-66.56,274.31,-0.50,-0.44,1.06,7,3
1772476443.264417,2536008,-0.46,0.14,0.14,-30.37,-78.87,98.06,-14.88,-9.25,0.13,0.01,-0.14,0.01,3.06,-66.56,274.25,-0.75,0.56,1.56,8,2
1772476443.305097,2536048,-0.35,0.34,0.17,-29.12,-78.69,97.69,-11.63,-4.44,-0.69,-0.01,-0.16,-0.02,3.00,-66.56,274.19,-0.44,1.06,1.75,7,2
1772476443.344582,2536088,-0.18,0.22,0.13,-28.62,-78.50,97.37,-6.75,-1.94,-0.31,-0.04,-0.12,-0.10,2.87,-66.62,274.12,-0.69,1.00,2.19,6,3
1772476443.384472,2536128,0.03,0.06,-0.05,-28.50,-78.44,97.19,-2.87,-2.75,1.75,-0.06,-0.09,-0.12,2.75,-66.69,274.06,-0.31,0.37,2.37,6,3
1772476443.425251,2536168,0.09,-0.15,-0.08,-28.31,-78.19,97.00,-4.31,-8.69,2.56,-0.07,-0.10,-0.20,2.56,-66.69,273.94,-1.56,-0.06,3.00,6,4
1772476443.465424,2536209,0.04,-0.21,0.00,-27.44,-77.81,96.69,-9.81,-14.00,3.00,0.01,-0.11,-0.04,2.31,-66.69,273.69,-3.94,-2.62,3.19,6,4
1772476443.505934,2536249,-0.34,0.15,0.26,-26.25,-77.31,96.31,-11.31,-10.13,-0.19,-0.03,-0.03,-0.01,2.19,-66.69,273.50,-3.44,0.69,2.75,7,5
1772476443.545251,2536289,-0.50,0.28,0.32,-25.12,-77.00,95.94,-9.69,-5.06,-1.06,-0.01,-0.06,0.01,2.19,-66.69,273.37,-0.62,1.75,1.31,6,6
1772476443.585315,2536328,-0.65,-0.06,0.33,-24.50,-76.94,95.69,-7.31,1.25,-1.87,-0.03,-0.06,-0.10,2.12,-66.75,273.31,-1.25,2.62,0.69,6,8
1772476443.625885,2536369,-0.45,0.99,0.39,-24.12,-77.25,95.56,-3.94,13.00,-6.50,-0.06,0.01,0.00,2.12,-66.87,273.31,0.56,1.44,-0.31,6,10
1772476443.665978,2536409,-0.51,0.56,0.29,-24.19,-77.87,95.87,13.00,18.37,-5.87,-0.03,-0.04,-0.01,2.12,-66.94,273.37,1.31,1.62,-0.44,7,12
1772476443.706142,2536450,0.00,-0.01,0.09,-25.62,-78.62,96.50,19.62,19.37,-2.19,-0.09,0.00,-0.15,2.12,-67.00,273.44,2.75,0.94,-1.94,7,13
1772476443.746137,2536489,0.15,-0.22,0.00,-27.62,-79.31,97.19,19.56,16.31,-1.62,-0.02,-0.04,-0.23,2.19,-67.00,273.62,4.31,-0.13,-2.12,7,12
1772476443.785954,2536529,-0.03,-0.33,-0.01,-29.50,-79.75,97.75,16.00,11.56,0.62,-0.02,-0.09,-0.13,2.19,-67.00,273.81,3.44,-0.69,-0.75,6,12
1772476443.826704,2536570,0.09,-0.37,-0.02,-30.81,-80.12,98.12,3.81,7.44,1.25,-0.06,-0.06,-0.12,2.19,-67.00,273.94,2.69,-1.00,-0.69,6,12
1772476443.866857,2536610,0.09,-0.21,-0.11,-31.19,-80.31,98.19,-2.19,0.88,-0.88,0.00,-0.03,-0.06,2.12,-67.00,274.00,1.25,-1.31,-0.13,6,13
1772476443.907348,2536650,-0.09,-0.09,-0.04,-30.56,-80.37,98.19,-5.44,-1.69,-2.25,-0.05,-0.07,-0.06,2.06,-66.94,274.00,-0.19,-1.37,0.62,5,11
1772476443.946856,2536690,-0.10,-0.05,0.02,-29.56,-80.31,98.12,-6.19,-3.25,-2.25,-0.06,-0.11,0.07,2.00,-66.87,273.94,-0.31,-2.56,1.06,5,10
1772476443.986437,2536730,-0.56,-0.16,0.25,-28.44,-80.31,98.06,-7.25,1.12,-4.37,0.00,-0.15,0.10,1.87,-66.75,273.87,2.12,-3.19,1.19,4,9
1772476444.027426,2536770,-0.31,-0.06,0.13,-27.69,-80.56,97.87,-9.50,6.50,-3.50,-0.04,-0.14,0.01,1.69,-66.62,274.00,4.25,-1.19,0.94,4,8
1772476444.067164,2536811,-0.10,0.13,0.00,-27.62,-80.87,97.69,-7.81,5.81,0.13,0.00,-0.01,-0.13,1.56,-66.62,274.06,2.25,0.50,0.37,2,6
1772476444.107526,2536851,0.07,0.28,-0.08,-28.19,-81.00,97.37,-2.69,3.75,1.31,0.00,-0.03,-0.11,1.56,-66.62,274.12,0.37,0.06,-0.25,2,5
1772476444.147304,2536891,0.11,0.21,-0.07,-29.00,-81.06,97.25,2.50,-0.62,1.62,0.01,-0.02,-0.06,1.56,-66.62,274.12,-0.25,0.37,-0.62,3,5
1772476444.186868,2536930,-0.08,0.06,0.00,-29.44,-80.94,97.31,4.81,-2.06,1.56,0.00,-0.09,-0.06,1.62,-66.62,274.12,-0.75,1.06,-1.06,3,5
1772476444.227929,2536971,-0.10,0.00,0.01,-29.75,-80.87,97.44,5.75,-2.75,1.87,-0.03,-0.08,-0.10,1.81,-66.69,274.19,-0.50,0.88,-0.94,3,4
1772476444.268341,2537011,-0.10,-0.04,0.00,-30.00,-80.69,97.56,5.00,-3.44,2.25,-0.04,-0.12,-0.08,1.94,-66.69,274.25,-0.50,0.37,-0.94,3,4
1772476444.308477,2537052,-0.26,0.04,0.08,-30.25,-80.56,97.62,4.12,-1.69,1.56,-0.04,-0.12,-0.02,2.06,-66.75,274.25,-0.44,0.25,-0.75,5,7
1772476444.347801,2537091,-0.20,0.05,0.08,-30.56,-80.50,97.75,3.75,-0.50,0.94,0.00,-0.11,-0.05,2.06,-66.75,274.25,-0.37,0.25,0.62,6,7
1772476444.387874,2537131,-0.22,-0.01,0.10,-30.62,-80.50,97.81,2.62,0.00,-0.13,-0.03,-0.11,-0.07,2.06,-66.75,274.25,-0.69,0.06,0.62,6,7
1772476444.428524,2537172,-0.15,0.06,0.08,-30.81,-80.56,97.87,1.12,1.87,0.00,-0.01,-0.17,-0.12,2.12,-66.75,274.25,0.31,0.94,0.06,6,6
1772476444.483067,2537212,-0.04,0.05,0.02,-31.06,-80.62,97.94,1.25,1.94,0.69,-0.04,-0.09,-0.14,2.19,-66.81,274.25,0.75,1.00,-0.69,6,6
1772476444.508927,2537252,-0.10,0.09,0.01,-31.44,-80.62,97.94,1.06,0.25,0.50,-0.11,-0.12,-0.05,2.25,-66.81,274.31,1.00,-0.44,-0.44,6,6
1772476444.549296,2537293,-0.11,0.01,0.09,-31.50,-80.62,97.94,1.12,-0.13,-1.00,0.00,-0.14,-0.09,2.31,-66.87,274.37,0.06,0.25,0.13,6,6
1772476444.589140,2537333,-0.11,0.00,0.08,-31.31,-80.62,98.00,0.06,-0.56,-0.62,-0.03,-0.09,-0.09,2.31,-66.87,274.37,0.44,0.31,-0.13,6,6
1772476444.629762,2537373,-0.12,0.06,0.07,-31.25,-80.62,98.06,-0.19,-0.50,-0.69,-0.03,-0.11,-0.14,2.37,-66.87,274.37,0.56,0.06,0.06,6,6
1772476444.669711,2537413,-0.13,0.05,0.04,-31.12,-80.62,98.06,0.19,-0.44,-0.50,-0.03,-0.08,-0.09,2.37,-66.87,274.37,0.25,-0.13,0.00,6,6
1772476444.709865,2537453,-0.20,0.04,0.05,-31.12,-80.62,98.06,0.06,-0.19,-0.56,-0.02,-0.12,-0.02,2.44,-66.94,274.37,0.62,-0.31,0.19,3,3
1772476444.749986,2537493,-0.18,0.05,0.05,-31.12,-80.62,98.06,0.13,1.00,-0.37,-0.02,-0.06,-0.04,2.44,-66.94,274.44,0.94,-0.31,-0.44,3,2
1772476444.789774,2537533,-0.16,0.04,0.06,-31.12,-80.69,98.06,0.88,1.25,-0.94,0.00,-0.07,-0.05,2.37,-66.94,274.44,0.81,0.25,-0.13,3,2
1772476444.830315,2537574,-0.17,0.01,0.08,-31.19,-80.75,98.12,0.69,1.37,-0.25,-0.03,-0.07,-0.09,2.37,-66.94,274.44,0.75,0.00,-0.62,3,2
1772476444.870545,2537614,-0.13,0.05,0.08,-31.37,-80.81,98.19,1.50,1.37,-0.75,-0.03,-0.07,-0.05,2.37,-66.94,274.50,0.94,-0.37,-0.37,2,2
1772476444.910466,2537654,-0.24,0.12,0.15,-31.31,-80.81,98.25,2.25,-0.06,-1.25,-0.02,0.02,-0.13,2.44,-66.87,274.56,1.00,-2.62,-2.50,2,2
1772476444.950307,2537694,-0.40,0.03,0.33,-31.19,-80.81,98.37,5.87,-0.31,0.06,-0.09,-0.06,-0.07,2.69,-66.75,274.69,0.56,-4.00,-6.87,1,1
1772476444.990207,2537733,-0.31,-0.06,0.28,-31.69,-80.81,98.56,7.00,3.31,2.75,-0.04,-0.09,-0.12,3.37,-66.62,275.06,2.31,-1.75,-8.56,1,1
1772476445.030670,2537774,-0.04,-0.13,0.10,-33.56,-80.87,98.62,8.31,7.37,5.75,-0.03,-0.12,-0.28,4.06,-66.56,275.50,3.44,0.25,-6.37,1,1
1772476445.071174,2537814,0.05,-0.20,-0.03,-36.00,-80.94,98.69,6.31,6.06,5.94,0.05,-0.13,-0.17,4.50,-66.50,275.69,-2.06,-3.31,-2.31,1,1
1772476445.111354,2537855,0.08,-0.20,-0.19,-38.19,-81.00,98.62,3.06,4.94,6.75,-0.15,-0.10,-0.04,4.81,-66.31,275.56,-6.12,-5.69,0.56,1,1
1772476445.150797,2537894,0.08,-0.14,-0.16,-40.00,-81.00,98.44,0.50,1.81,6.75,0.01,-0.03,-0.06,4.87,-66.25,275.44,-4.56,-2.50,2.44,1,1
1772476445.190806,2537934,-0.10,0.09,0.00,-41.00,-80.87,98.19,-1.87,-1.19,4.31,-0.01,-0.02,0.01,4.87,-66.12,275.25,-4.06,-2.19,2.06,3,2
1772476445.231388,2537975,-0.27,0.09,0.08,-40.88,-80.75,98.06,-3.06,-1.50,-0.44,0.03,-0.01,0.00,4.81,-66.06,275.06,-2.87,-0.25,1.69,4,4
1772476445.271431,2538015,-0.28,0.10,0.08,-40.50,-80.81,97.94,-2.87,1.37,-2.37,0.00,-0.05,0.02,4.87,-66.06,275.00,-1.56,-0.06,0.31,5,4
1772476445.312345,2538055,-0.13,0.08,-0.04,-40.19,-80.87,98.00,-1.37,1.69,-2.31,-0.03,-0.16,-0.06,4.87,-66.06,275.00,-0.19,-0.31,-0.56,4,4
1772476445.351696,2538095,0.05,-0.06,-0.10,-40.19,-81.00,98.00,-0.31,1.62,-0.94,-0.03,-0.12,-0.07,4.94,-66.12,275.00,0.44,0.25,-0.50,5,4
1772476445.391508,2538135,0.12,0.02,-0.25,-40.31,-81.00,98.00,-0.13,-1.62,1.50,-0.05,-0.06,-0.06,5.00,-66.12,275.06,2.06,0.37,-1.31,5,4
1772476445.432346,2538176,0.31,-0.11,-0.26,-40.06,-80.87,97.94,0.50,-7.12,1.44,-0.06,-0.14,-0.15,5.00,-66.12,275.06,-0.13,0.56,1.44,6,4
1772476445.472625,2538216,0.46,-0.31,-0.37,-38.94,-80.50,97.87,-3.06,-17.56,5.00,-0.06,-0.11,-0.23,4.94,-66.25,275.00,-1.81,1.56,2.31,6,4
1772476445.512962,2538256,0.42,-0.27,-0.30,-36.81,-79.69,97.56,-7.50,-31.37,7.44,-0.07,-0.18,-0.12,4.87,-66.31,274.87,-2.44,-1.06,2.62,7,4
1772476445.552237,2538296,-0.62,-0.22,0.21,-33.69,-78.44,97.12,-13.00,-32.56,7.00,0.02,-0.24,0.10,4.75,-66.25,274.69,-5.12,-1.25,5.00,7,4
1772476445.591904,2538335,-0.75,0.09,0.46,-31.31,-77.44,96.50,-17.25,-22.81,5.25,0.00,-0.25,0.10,4.62,-66.19,274.37,-3.00,0.00,3.87,6,4
1772476445.632869,2538376,-0.39,0.15,0.30,-29.75,-76.81,95.81,-18.44,-13.06,3.12,-0.06,-0.08,0.00,4.44,-66.25,274.19,-0.94,1.06,2.62,5,3
1772476445.672947,2538416,-0.16,0.09,0.09,-28.44,-76.31,95.19,-19.37,-12.56,2.19,-0.02,-0.08,-0.12,4.31,-66.31,274.06,-0.94,0.56,1.87,5,3
1772476445.713495,2538457,-0.26,0.25,0.20,-27.06,-75.87,94.50,-18.94,-8.69,1.19,-0.07,-0.05,-0.04,4.19,-66.31,274.00,-1.12,0.50,2.12,5,3
1772476445.752957,2538496,-0.12,0.16,0.20,-26.12,-75.50,93.94,-16.94,-7.06,2.37,-0.01,-0.05,-0.15,4.19,-66.31,273.94,2.56,1.50,0.37,4,3
1772476445.792937,2538536,-0.35,0.48,0.24,-25.69,-75.19,93.31,-13.88,-5.75,3.06,-0.09,-0.17,-0.02,4.00,-66.37,274.00,3.81,0.88,1.44,4,3
1772476445.833620,2538577,-0.44,0.42,0.27,-25.87,-74.94,92.81,-4.75,0.69,3.37,-0.05,-0.06,-0.26,3.62,-66.50,274.06,2.44,1.75,3.19,3,3
1772476445.873832,2538617,0.13,0.32,0.12,-26.31,-74.87,92.56,0.88,-3.75,1.37,-0.02,-0.02,-0.21,3.37,-66.56,273.94,0.56,-0.44,3.31,3,3
1772476445.914242,2538657,-0.20,0.09,0.27,-26.44,-74.75,92.62,3.62,-3.12,-0.88,-0.01,-0.01,-0.18,3.06,-66.56,273.81,-0.25,-1.00,3.00,2,3
1772476445.953803,2538697,-0.45,0.13,0.33,-26.19,-74.62,92.75,3.69,-1.50,-2.37,-0.01,-0.02,-0.11,2.94,-66.56,273.75,0.62,-1.00,0.88,2,3
1772476445.993394,2538737,-0.41,0.14,0.29,-26.00,-74.75,93.00,4.62,4.12,-4.25,0.02,-0.04,-0.10,2.87,-66.50,273.75,1.19,-0.19,0.00,2,2
1772476446.034324,2538778,-0.51,0.31,0.35,-26.25,-75.00,93.37,10.19,12.00,-4.19,-0.02,-0.08,-0.07,2.81,-66.56,273.81,2.06,0.06,-0.31,2,2
1772476446.074597,2538818,-0.34,0.32,0.33,-27.31,-75.50,93.75,17.94,16.44,-2.12,-0.06,-0.02,-0.06,2.81,-66.56,273.94,3.06,-0.37,-1.62,2,2
1772476446.114658,2538858,-0.28,0.20,0.22,-29.37,-76.00,94.37,25.75,20.12,-1.37,-0.08,0.00,-0.07,2.87,-66.50,274.12,3.69,-0.75,-2.25,3,3
1772476446.154695,2538898,-0.01,-0.05,0.11,-31.87,-76.69,95.19,28.25,18.87,-1.69,-0.05,-0.02,-0.11,2.94,-66.50,274.25,3.19,-0.44,-2.62,3,3
1772476446.194309,2538938,-0.02,-0.41,-0.03,-34.19,-77.25,96.06,26.12,14.00,-1.81,0.00,-0.06,-0.04,3.06,-66.50,274.37,2.00,-1.19,-2.19,3,3
1772476446.234870,2538978,0.07,-0.75,-0.12,-36.00,-77.62,96.75,16.44,9.56,0.31,0.00,-0.05,-0.08,3.19,-66.44,274.56,1.87,-1.56,-1.25,3,3
1772476446.275250,2539019,0.21,-0.80,-0.25,-37.88,-77.87,97.00,4.81,6.81,5.94,-0.08,-0.10,-0.03,3.25,-66.44,274.75,6.19,-0.06,-2.31,5,3
1772476446.315418,2539059,0.19,-0.35,-0.23,-38.56,-78.06,97.06,-1.37,0.37,6.81,0.00,-0.14,-0.04,3.12,-66.50,275.06,6.87,2.44,-1.00,5,3
1772476446.355286,2539099,-0.03,-0.02,-0.06,-39.06,-77.87,96.75,-2.75,-3.19,4.25,0.06,-0.12,0.04,3.06,-66.56,275.12,0.94,-0.19,-0.06,5,3
1772476446.395338,2539138,-0.23,0.17,0.07,-38.88,-77.75,96.62,-3.56,-2.94,0.19,-0.01,-0.08,-0.01,3.06,-66.56,275.12,-0.31,0.75,-0.06,5,3
1772476446.435780,2539179,-0.38,0.24,0.11,-38.25,-77.75,96.62,-1.19,0.37,-4.19,-0.02,-0.13,0.01,3.12,-66.56,275.12,-1.12,0.69,0.13,6,3
1772476446.475849,2539219,-0.34,0.15,0.10,-37.75,-77.87,96.75,1.50,3.56,-5.81,-0.06,-0.13,0.01,3.12,-66.62,275.12,-0.75,0.62,0.75,6,2
1772476446.516241,2539260,-0.09,0.00,0.01,-37.44,-78.19,97.00,2.00,4.12,-5.56,-0.02,-0.08,-0.08,3.12,-66.62,275.06,-0.44,0.50,0.62,5,2
1772476446.555641,2539299,-0.21,0.00,0.06,-37.25,-78.44,97.31,2.06,5.37,-4.87,0.00,-0.09,-0.11,3.12,-66.62,275.06,0.19,0.44,0.62,5,2
1772476446.595603,2539339,-0.11,-0.06,0.07,-37.25,-78.69,97.50,2.44,6.00,-4.44,-0.03,-0.14,-0.10,3.12,-66.69,275.06,0.75,0.75,0.25,5,2
1772476446.636433,2539380,-0.21,0.00,0.08,-37.50,-79.00,97.75,2.37,6.62,-2.75,-0.06,-0.14,-0.15,3.12,-66.75,275.12,1.12,1.00,0.25,5,1
1772476446.676401,2539420,-0.72,0.34,0.21,-38.38,-79.31,97.87,6.56,13.88,-0.56,-0.06,-0.14,-0.09,3.12,-66.75,275.19,1.12,0.13,0.81,4,2
1772476446.716684,2539460,-0.13,0.20,0.15,-41.38,-79.75,98.12,18.00,17.62,6.25,-0.13,-0.08,-0.03,3.12,-66.81,275.25,2.69,0.88,0.37,3,2
1772476446.756699,2539500,0.29,-0.14,-0.03,-46.00,-79.94,98.37,22.75,13.06,12.56,-0.05,-0.07,-0.26,3.00,-66.81,275.37,7.69,-1.06,-2.62,3,2
1772476446.796418,2539540,0.18,-0.25,-0.06,-50.50,-79.62,98.50,23.44,4.69,18.00,0.01,-0.04,-0.28,3.06,-66.75,275.69,7.81,-4.12,-4.37,3,2
1772476446.837448,2539581,0.04,-0.26,0.01,-53.75,-79.19,98.56,15.38,-0.13,15.88,-0.01,-0.06,-0.04,3.25,-66.56,276.06,3.94,-3.12,-4.00,2,1
1772476446.877241,2539621,0.02,-0.23,0.00,-55.38,-78.81,98.50,6.00,-2.62,7.31,0.03,-0.06,-0.06,3.50,-66.50,276.31,2.50,0.00,-3.81,3,2
1772476446.917956,2539661,-0.24,-0.16,0.05,-55.38,-78.62,98.50,-2.00,-1.56,-1.50,-0.02,-0.15,-0.05,3.69,-66.56,276.44,-0.69,1.50,-1.25,3,2
1772476446.957491,2539701,-0.19,-0.17,0.05,-54.63,-78.75,98.56,-6.50,0.13,-5.56,-0.03,-0.16,-0.05,3.81,-66.62,276.44,-1.75,1.31,0.94,3,2
1772476446.997334,2539741,-0.20,-0.08,0.00,-53.38,-79.00,98.50,-11.56,0.81,-7.62,-0.05,-0.16,-0.07,3.81,-66.69,276.37,-2.06,0.69,2.44,3,2
1772476447.037940,2539781,-0.17,0.01,0.03,-52.00,-79.31,98.37,-13.69,1.50,-8.56,0.00,-0.08,-0.03,3.62,-66.69,276.12,-2.44,0.75,3.81,4,2
1772476447.077969,2539821,-0.03,0.09,0.00,-50.63,-79.62,98.19,-13.13,1.25,-9.19,0.00,-0.04,0.04,3.31,-66.69,275.94,-1.69,-0.19,3.25,4,2
1772476447.118608,2539862,-0.10,0.08,-0.04,-49.25,-79.94,98.12,-11.13,3.44,-8.56,-0.02,-0.04,0.05,3.12,-66.69,275.81,0.13,-0.25,2.25,5,2
1772476447.158077,2539901,-0.11,0.12,-0.03,-48.19,-80.25,98.06,-8.25,2.75,-7.06,-0.02,-0.09,-0.01,3.00,-66.69,275.75,0.81,-0.13,1.62,5,2
1772476447.197785,2539941,-0.15,0.12,0.00,-47.56,-80.50,98.06,-6.06,3.81,-5.75,0.00,-0.04,-0.06,2.81,-66.69,275.75,1.69,0.37,0.37,4,2
1772476447.238917,2539982,-0.08,0.10,-0.01,-47.19,-80.75,98.06,-2.44,2.44,-4.69,-0.04,-0.14,-0.10,2.75,-66.69,275.81,1.87,0.31,0.13,4,3
1772476447.278599,2540022,-0.03,0.00,0.00,-46.75,-80.87,98.19,-1.00,1.06,-4.00,0.01,-0.15,-0.15,2.75,-66.81,275.94,1.94,1.56,0.13,4,3
1772476447.319359,2540063,-0.12,-0.03,0.04,-46.25,-81.00,98.31,-0.75,0.44,-2.50,0.00,-0.13,-0.18,2.75,-66.81,275.94,0.06,-0.13,0.75,4,3
1772476447.358793,2540102,-0.05,-0.06,0.03,-45.81,-81.06,98.31,-1.00,0.37,-1.69,-0.06,-0.13,-0.15,2.75,-66.81,275.94,0.06,0.62,0.88,5,3
1772476447.398882,2540142,-0.05,-0.08,-0.03,-45.56,-81.12,98.31,-1.94,-0.37,-0.88,-0.07,-0.09,-0.11,2.75,-66.87,275.87,0.31,0.75,0.94,6,3
1772476447.439697,2540183,0.00,-0.08,-0.04,-45.19,-81.06,98.25,-3.50,-2.94,-0.25,-0.06,-0.07,-0.09,2.69,-66.87,275.87,-0.75,0.31,1.06,6,3
1772476447.479869,2540223,0.04,-0.09,-0.08,-44.38,-81.00,98.12,-5.12,-6.31,0.00,-0.01,-0.08,-0.08,2.62,-66.94,275.81,-0.62,0.06,0.94,8,2
1772476447.519954,2540263,0.10,-0.43,-0.18,-42.75,-80.75,97.94,-8.25,-10.88,0.56,-0.14,-0.01,-0.14,2.56,-66.94,275.81,0.94,1.44,0.50,9,2
1772476447.559433,2540303,0.37,-0.50,-0.23,-40.38,-80.37,97.56,-19.44,-18.19,0.25,-0.05,-0.05,-0.07,2.56,-67.00,275.81,0.56,-0.31,0.19,10,2
1772476447.599655,2540343,-0.03,-0.31,-0.05,-36.25,-79.75,96.87,-27.62,-25.56,-2.00,0.01,-0.10,-0.02,2.50,-67.00,275.81,0.00,0.06,1.94,11,2
1772476447.639995,2540383,-0.63,0.09,0.24,-31.37,-79.00,96.12,-31.62,-20.62,-6.12,0.00,-0.19,0.15,2.37,-67.00,275.69,-0.88,-0.31,2.56,11,1
1772476447.680354,2540424,-0.99,0.24,0.14,-27.44,-78.56,95.44,-27.25,-9.69,-8.69,0.00,-0.13,-0.02,2.19,-67.00,275.56,-0.31,1.06,2.56,12,1
1772476447.720434,2540464,-0.48,0.07,0.19,-24.06,-78.69,95.06,-26.87,11.94,-19.19,0.00,0.00,0.05,2.00,-67.06,275.50,-0.50,1.75,2.12,13,1
1772476447.759875,2540503,0.41,0.11,-0.10,-20.00,-79.56,95.00,-31.00,13.56,-23.31,-0.02,0.00,-0.20,1.94,-67.12,275.44,1.87,5.44,0.75,11,1
1772476447.800230,2540543,0.81,0.38,-0.11,-14.81,-80.00,94.75,-30.25,-2.94,-19.06,-0.11,-0.08,-0.10,1.81,-67.31,275.44,-0.75,0.19,0.37,10,2
1772476447.840849,2540584,0.07,0.27,0.15,-10.00,-79.56,94.56,-19.75,-21.56,-11.31,-0.08,-0.31,-0.24,1.87,-67.37,275.31,-3.37,-0.62,3.00,9,3
1772476447.881140,2540624,-0.45,0.10,0.28,-6.94,-78.75,94.31,-13.56,-23.06,-2.62,0.01,-0.37,-0.15,1.87,-67.44,275.06,-4.25,-0.50,5.87,7,4
1772476447.921465,2540665,-0.55,0.15,0.36,-6.25,-77.94,93.94,-8.44,-13.31,5.50,0.03,-0.11,-0.09,1.62,-67.44,274.75,-4.19,-0.25,6.94,6,4
1772476447.960762,2540704,-0.31,0.26,0.38,-7.06,-77.50,93.50,-3.62,-7.00,7.00,-0.09,-0.02,0.00,1.25,-67.50,274.50,-4.56,-1.06,7.87,6,5
1772476448.000500,2540744,-0.29,0.28,0.25,-8.13,-77.25,93.19,1.06,-3.75,6.44,-0.23,0.00,-0.19,0.69,-67.50,274.06,-3.75,1.06,8.31,6,7
1772476448.041437,2540785,-0.23,0.18,0.26,-9.38,-77.12,93.06,5.37,-0.88,5.06,-0.02,0.12,-0.08,-0.06,-67.50,273.50,-5.37,-0.69,8.38,7,9
1772476448.081520,2540825,-0.22,0.22,0.21,-10.56,-77.00,93.00,5.69,-1.81,5.50,-0.01,0.12,0.00,-0.37,-67.50,273.25,0.50,-0.31,1.75,7,10
1772476448.121667,2540865,-0.55,0.27,0.21,-11.75,-76.87,92.94,6.56,0.94,3.94,0.22,-0.04,0.08,-0.31,-67.56,273.50,7.69,3.12,-4.94,7,12
1772476448.161468,2540905,-0.35,0.25,0.09,-12.81,-77.00,93.00,8.75,9.13,0.62,-0.01,-0.21,-0.24,-0.19,-67.62,273.75,2.75,1.19,-0.13,8,12
1772476448.201631,2540945,-0.11,0.29,0.23,-13.56,-77.37,93.37,15.00,9.81,-2.50,-0.12,-0.04,-0.11,-0.31,-67.69,273.69,-1.81,-0.69,3.87,8,13
1772476448.242248,2540986,-0.25,-0.02,0.20,-14.38,-77.62,94.00,18.06,8.13,-0.19,-0.03,-0.05,-0.18,-0.75,-67.75,273.37,-4.25,1.44,6.19,8,13
1772476448.282233,2541026,-0.36,-0.18,0.15,-15.44,-77.94,94.50,15.25,8.63,2.62,0.00,0.04,-0.07,-1.00,-67.75,273.00,-4.44,-1.62,3.94,9,13
1772476448.322691,2541066,-0.32,-0.11,0.06,-16.87,-78.25,94.81,11.25,10.56,4.37,0.10,0.10,0.07,-0.94,-67.56,272.87,-0.62,-4.81,-1.31,9,14
1772476448.362153,2541106,-0.05,-0.04,-0.09,-18.69,-78.56,94.94,8.25,11.31,4.62,0.04,0.12,0.20,-0.81,-67.44,273.12,9.38,-1.37,-6.25,9,13
1772476448.401859,2541145,0.00,0.00,-0.13,-20.19,-78.94,95.00,6.00,10.75,1.62,0.00,0.00,-0.09,-0.56,-67.44,273.69,10.69,-0.44,-6.31,9,12
1772476448.442942,2541186,0.11,-0.01,-0.12,-20.87,-79.31,95.25,6.06,5.69,-2.56,-0.08,-0.10,-0.05,-0.37,-67.44,274.19,6.56,0.00,-3.56,8,11
1772476448.483255,2541227,0.08,-0.11,-0.08,-20.87,-79.50,95.50,4.94,1.50,-2.56,-0.05,-0.15,-0.21,-0.31,-67.50,274.37,2.62,-0.19,-1.19,7,10
1772476448.523778,2541267,-0.07,-0.13,0.00,-20.50,-79.50,95.75,2.31,-1.69,-2.31,-0.01,-0.03,-0.10,-0.25,-67.50,274.44,-0.69,-0.94,0.56,6,9
1772476448.563456,2541306,-0.23,-0.07,0.09,-19.94,-79.50,95.87,-0.25,-1.50,-2.56,-0.06,-0.04,-0.03,-0.25,-67.50,274.37,-1.75,-0.81,1.25,5,8
1772476448.602950,2541346,-0.29,-0.02,0.12,-19.31,-79.50,96.00,-0.94,-0.37,-2.37,-0.04,0.00,0.00,-0.31,-67.50,274.25,-1.31,-0.94,0.81,5,7
1772476448.643696,2541387,-0.29,0.03,0.08,-18.94,-79.50,96.00,-0.69,1.50,-1.19,0.00,0.00,0.01,-0.31,-67.44,274.25,-0.31,-0.50,-0.19,6,7
1772476448.683608,2541427,-0.25,0.06,0.06,-18.94,-79.62,96.00,0.44,3.25,-0.31,0.01,0.00,0.02,-0.25,-67.44,274.25,0.69,-0.69,-0.81,6,6
1772476448.724095,2541467,-0.09,0.02,-0.01,-19.25,-79.75,96.06,1.69,3.75,-0.44,0.00,-0.03,-0.07,-0.19,-67.44,274.31,0.88,-0.31,-0.94,5,6
1772476448.763792,2541507,-0.13,-0.03,0.01,-19.56,-79.87,96.12,1.81,3.25,-0.44,-0.01,-0.01,-0.08,-0.19,-67.44,274.37,1.44,0.19,-0.88,5,5
1772476448.803729,2541547,-0.35,-0.22,0.05,-19.37,-80.06,96.19,-2.50,5.00,-3.06,-0.02,0.04,-0.04,-0.13,-67.44,274.44,0.50,0.75,-0.81,5,4
1772476448.844594,2541588,-0.08,-0.05,0.12,-18.00,-80.44,96.19,-12.38,8.88,-12.44,-0.04,-0.04,-0.14,-0.19,-67.50,274.37,-1.44,1.37,1.75,4,4
1772476448.884715,2541628,-0.06,0.35,0.12,-14.88,-80.87,96.31,-8.50,5.87,-14.88,-0.06,-0.01,-0.10,-0.31,-67.56,274.25,-3.12,0.88,2.81,4,4
1772476448.924681,2541668,-0.11,0.04,0.01,-12.13,-81.12,96.62,0.19,2.87,-6.56,-0.05,-0.06,-0.03,-0.37,-67.56,274.06,-1.75,0.06,0.81,4,4
1772476448.964516,2541708,-0.05,-0.05,-0.03,-11.63,-81.25,96.75,3.50,0.19,1.69,-0.02,0.00,-0.07,-0.31,-67.56,274.12,2.25,-0.44,-1.87,4,5
1772476449.004171,2541748,-0.09,-0.11,0.00,-12.31,-81.25,96.81,3.81,0.50,2.06,0.00,-0.05,-0.11,-0.19,-67.56,274.25,0.94,-0.31,-1.25,4,5
1772476449.044948,2541788,-0.12,-0.13,0.01,-12.75,-81.25,96.81,0.94,-0.56,2.37,0.03,-0.07,-0.13,-0.06,-67.56,274.31,1.25,0.25,-2.06,4,5
1772476449.085026,2541829,-0.14,0.07,0.04,-13.50,-81.19,96.75,0.69,0.37,4.00,-0.05,-0.07,-0.09,0.06,-67.62,274.44,0.69,0.19,-1.94,4,5
1772476449.125277,2541869,-0.15,0.15,0.05,-14.63,-81.19,96.62,2.56,-0.62,4.00,-0.09,-0.08,-0.03,0.19,-67.62,274.50,0.00,0.06,-1.25,4,5
1772476449.164890,2541908,-0.25,0.12,0.08,-15.69,-81.06,96.56,4.37,-1.37,3.81,0.00,-0.06,-0.05,0.25,-67.62,274.50,-0.62,0.37,-0.44,4,5
1772476449.204901,2541948,-0.23,0.03,0.06,-16.62,-81.00,96.56,4.37,-0.44,2.81,-0.01,-0.05,-0.10,0.25,-67.62,274.44,-2.44,-1.50,1.31,3,5
1772476449.245414,2541989,-0.19,0.02,0.03,-17.19,-81.00,96.62,3.44,0.75,0.31,-0.03,-0.12,0.05,0.19,-67.50,274.25,-3.75,-1.69,2.94,3,5
1772476449.285659,2542029,-0.23,-0.05,0.05,-17.44,-81.06,96.75,1.81,2.31,-0.44,0.02,-0.08,0.02,0.13,-67.50,274.06,-3.12,-0.37,1.81,3,5
1772476449.325962,2542070,-0.17,0.00,0.02,-17.62,-81.12,96.75,-0.31,3.00,0.06,0.03,-0.02,0.00,0.13,-67.50,274.00,-1.06,0.06,0.00,3,4
1772476449.365343,2542109,-0.06,0.07,0.00,-17.81,-81.25,96.75,-0.88,2.62,0.44,0.00,-0.04,-0.08,0.13,-67.50,274.00,0.13,0.25,-0.19,3,4
1772476449.405873,2542149,-0.13,0.11,-0.02,-18.00,-81.31,96.69,0.19,1.19,0.81,-0.05,-0.06,-0.04,0.13,-67.50,274.00,0.88,0.37,-0.37,2,3
1772476449.446329,2542190,-0.16,0.11,0.07,-18.37,-81.31,96.69,1.06,0.88,1.06,-0.03,-0.07,-0.06,0.13,-67.50,274.06,1.06,0.44,-0.44,2,2
1772476449.486339,2542230,-0.14,0.11,0.05,-18.81,-81.31,96.69,1.37,1.19,0.62,-0.04,-0.07,-0.07,0.13,-67.50,274.06,0.81,0.25,0.00,2,2
1772476449.526694,2542270,-0.17,0.07,0.05,-19.12,-81.37,96.69,1.87,1.44,0.00,-0.02,-0.08,-0.06,0.13,-67.50,274.12,0.25,-0.56,0.25,2,2
1772476449.566452,2542310,-0.15,0.04,0.09,-19.37,-81.44,96.75,2.56,2.00,-0.50,-0.02,-0.11,-0.14,0.13,-67.50,274.06,-0.56,-0.56,0.88,2,2
1772476449.606371,2542350,-0.11,0.03,0.06,-19.56,-81.50,96.87,2.56,1.69,-0.44,-0.05,-0.08,-0.11,0.06,-67.50,274.06,-0.50,-0.94,0.50,2,1
1772476449.646811,2542390,-0.12,0.04,0.06,-19.81,-81.56,96.94,1.62,0.69,0.94,0.00,-0.07,-0.04,0.06,-67.44,274.06,0.50,-0.37,-0.56,2,2
1772476449.687146,2542431,-0.09,0.05,0.00,-20.19,-81.50,96.94,1.50,-0.19,1.31,-0.02,-0.08,-0.06,0.06,-67.44,274.06,1.00,-0.19,-0.56,4,3
1772476449.727580,2542471,-0.02,0.05,0.00,-20.50,-81.50,96.94,1.62,-1.81,0.88,-0.03,-0.08,-0.08,0.06,-67.44,274.06,0.50,0.13,-0.44,4,3
1772476449.767347,2542511,0.00,-0.03,-0.12,-20.56,-81.37,96.94,0.75,-4.56,1.06,-0.07,-0.07,-0.04,0.06,-67.44,274.12,0.94,-0.19,-0.56,4,3
1772476449.806990,2542550,0.14,-0.08,-0.19,-20.31,-81.19,96.94,-0.75,-8.31,1.75,-0.06,-0.08,-0.16,0.00,-67.44,274.12,0.50,0.25,0.13,3,2
1772476449.847827,2542591,0.51,-0.11,-0.32,-19.87,-80.69,96.81,-2.00,-18.37,3.75,0.09,-0.05,-0.09,0.00,-67.50,274.12,1.44,1.25,-0.50,3,2
1772476449.888425,2542632,-0.39,-0.07,-0.05,-19.12,-79.81,96.56,-3.37,-26.00,7.06,-0.02,-0.20,0.06,0.00,-67.44,274.12,-0.81,-0.88,0.69,4,2
1772476449.928144,2542672,-0.53,-0.07,0.23,-18.75,-78.87,96.19,-5.31,-16.94,6.50,0.01,-0.21,0.00,0.00,-67.44,274.12,-0.19,1.00,1.12,3,2
1772476449.967765,2542711,-0.22,-0.06,0.11,-18.81,-78.25,95.75,-7.25,-11.69,6.50,-0.02,-0.13,-0.04,0.00,-67.50,274.12,0.94,1.00,1.31,4,3
1772476450.007696,2542751,-0.39,0.07,0.15,-18.87,-77.75,95.31,-8.50,-12.00,5.31,-0.02,-0.13,-0.05,-0.06,-67.50,274.12,0.50,1.31,1.62,4,3
1772476450.048500,2542792,-0.33,0.20,0.17,-18.69,-77.37,94.94,-7.06,-6.00,1.75,-0.01,-0.12,-0.04,-0.19,-67.56,274.06,-0.88,1.62,2.06,5,3
1772476450.088795,2542832,-0.19,0.14,0.14,-18.37,-77.19,94.69,-4.94,-4.06,0.00,-0.03,-0.04,-0.11,-0.37,-67.69,273.87,-1.25,1.87,1.87,4,2
1772476450.128982,2542872,-0.20,0.12,0.14,-18.00,-77.00,94.56,-3.50,-3.37,0.37,-0.04,-0.04,-0.16,-0.44,-67.75,273.81,-0.56,1.81,1.00,4,3
1772476450.168501,2542912,-0.11,0.04,0.06,-17.81,-76.87,94.44,-2.25,-2.62,0.81,-0.02,-0.09,-0.14,-0.50,-67.81,273.81,0.62,1.25,1.06,4,3
1772476450.208337,2542952,-0.09,0.04,0.08,-17.87,-76.75,94.31,-1.56,-3.12,2.25,0.00,-0.06,-0.15,-0.56,-67.81,273.81,1.37,0.50,0.56,4,3
1772476450.249146,2542993,-0.11,0.03,0.10,-18.00,-76.56,94.19,-1.50,-3.44,1.56,-0.02,-0.04,-0.16,-0.69,-67.87,273.81,1.62,0.31,0.94,4,3
1772476450.289463,2543033,-0.28,0.02,0.19,-17.87,-76.44,94.12,-1.87,-2.94,0.31,-0.06,-0.04,-0.12,-0.81,-67.87,273.87,1.50,0.00,1.00,4,3
1772476450.329891,2543073,-0.32,0.09,0.25,-17.69,-76.37,94.06,-1.50,-1.50,-0.13,-0.02,-0.07,-0.13,-0.88,-67.87,273.87,1.25,-0.19,0.44,5,3
1772476450.369234,2543113,-0.45,0.21,0.30,-17.62,-76.31,94.06,0.56,2.25,-0.81,0.01,-0.06,-0.09,-0.88,-67.87,273.87,0.06,-0.62,-0.13,4,3
1772476450.409327,2543153,-0.36,0.37,0.27,-18.00,-76.50,94.12,6.06,8.44,-1.81,-0.04,-0.03,-0.15,-0.81,-67.87,273.87,-0.25,-0.37,-0.50,4,2
1772476450.449865,2543193,-0.17,0.71,0.24,-19.12,-76.81,94.44,20.37,12.06,-0.25,-0.05,-0.06,-0.09,-0.69,-67.87,273.94,0.13,-0.69,-1.50,3,2
1772476450.490139,2543234,-0.04,0.63,0.17,-21.06,-77.19,95.25,38.88,9.63,4.62,-0.11,0.01,-0.14,-0.50,-67.87,274.06,0.44,-1.06,-2.44,4,2
1772476450.530261,2543274,0.24,0.02,0.09,-24.44,-77.31,96.25,48.44,1.06,9.56,-0.10,-0.05,-0.13,-0.19,-67.81,274.19,0.37,-1.75,-3.31,5,3
1772476450.569807,2543313,0.12,-0.59,-0.10,-27.87,-77.06,97.44,45.69,-2.87,12.38,0.00,0.00,-0.09,0.00,-67.75,274.25,1.25,-1.87,-3.19,6,3
1772476450.609792,2543353,-0.26,-0.77,-0.06,-30.69,-76.75,98.19,32.06,-0.69,9.56,-0.01,-0.16,0.08,0.19,-67.69,274.44,1.31,-1.37,-2.25,7,3
1772476450.650532,2543394,-0.11,-0.74,-0.13,-31.87,-76.81,98.75,10.06,2.50,-0.19,0.03,0.06,0.01,0.37,-67.69,274.56,2.37,-0.06,-2.44,8,3
1772476450.691014,2543434,-0.21,-0.38,-0.10,-30.87,-77.19,99.19,-4.12,4.75,-4.25,-0.04,-0.13,0.00,0.50,-67.62,274.75,4.00,-0.75,-2.31,9,3
1772476450.731330,2543475,-0.19,0.24,0.03,-30.12,-77.50,99.31,-4.25,4.94,-10.94,-0.07,-0.22,-0.02,0.50,-67.62,274.94,2.81,0.13,-0.62,9,3
1772476450.770757,2543514,-0.09,0.13,0.00,-28.75,-77.87,99.62,-2.87,5.19,-11.19,-0.01,-0.14,-0.08,0.50,-67.62,275.00,0.62,0.37,-0.06,9,3
1772476450.810456,2543554,-0.22,0.04,-0.04,-27.75,-78.19,99.87,-0.75,3.94,-5.87,-0.02,-0.18,-0.16,0.56,-67.69,275.00,0.88,0.25,0.44,9,3
1772476450.851463,2543595,-0.08,-0.06,-0.06,-27.50,-78.37,100.00,0.06,4.12,-3.12,-0.03,-0.15,-0.06,0.56,-67.69,275.00,-0.25,-0.44,1.12,9,3
1772476450.891860,2543635,-0.06,-0.15,-0.04,-27.25,-78.56,100.06,-2.06,2.81,-2.44,-0.02,-0.16,-0.07,0.56,-67.69,274.94,-0.94,-0.13,1.12,7,3
1772476450.931960,2543675,-0.13,-0.12,-0.05,-26.87,-78.69,100.19,-4.69,1.37,-1.94,-0.02,-0.11,-0.04,0.62,-67.75,274.87,-1.37,0.06,0.00,7,2
1772476450.971498,2543715,-0.14,-0.06,0.00,-26.37,-78.81,100.06,-6.00,1.44,-1.19,-0.04,-0.16,-0.08,0.69,-67.75,274.87,-1.75,0.31,0.19,6,2
1772476451.011353,2543755,-0.10,-0.08,0.00,-26.12,-78.87,99.87,-7.00,1.12,-0.25,-0.02,-0.14,-0.12,0.81,-67.75,274.87,-1.62,1.06,0.06,5,2
1772476451.051791,2543795,-0.11,0.02,0.00,-26.00,-78.87,99.62,-9.00,0.06,1.62,-0.07,-0.09,-0.08,0.94,-67.81,274.81,-0.88,0.69,0.31,3,2
1772476451.092058,2543836,0.04,0.25,-0.08,-25.81,-78.81,99.56,-9.13,-3.44,-0.75,-0.06,0.09,-0.05,0.94,-67.81,274.81,0.56,0.13,0.00,2,2
1772476451.132526,2543876,0.11,0.40,-0.03,-24.75,-78.62,99.37,-6.69,-9.06,-7.00,-0.01,0.11,-0.09,0.94,-67.81,274.87,1.12,-0.56,-0.75,1,3
1772476451.172007,2543916,-0.42,0.25,0.16,-22.69,-78.44,99.50,-3.87,-7.37,-9.00,0.00,-0.06,-0.07,0.88,-67.81,274.81,0.06,-1.12,0.50,1,3
1772476451.211965,2543955,-0.18,0.00,0.22,-20.81,-78.44,99.81,-0.62,-1.50,-8.31,-0.02,-0.10,-0.11,0.88,-67.75,274.87,2.62,-2.81,-0.06,2,2
1772476451.252933,2543996,-0.26,-0.14,0.19,-19.69,-78.50,100.00,-0.62,-0.37,-2.62,-0.04,-0.16,-0.06,0.75,-67.62,275.00,5.31,-3.62,-1.06,2,2
1772476451.292812,2544036,-0.41,0.02,0.12,-19.37,-78.50,100.06,0.44,3.44,-0.56,-0.05,-0.10,-0.03,0.62,-67.56,275.12,3.81,-2.56,0.44,2,2
1772476451.333070,2544076,-0.18,-0.02,-0.01,-19.69,-78.69,100.06,1.31,4.50,0.25,0.00,-0.03,-0.07,0.50,-67.44,275.25,4.69,-3.25,-0.62,2,2
1772476451.372641,2544116,-0.05,-0.05,-0.04,-20.00,-78.81,100.12,1.19,3.12,0.37,0.02,-0.11,-0.07,0.50,-67.44,275.31,0.50,-0.31,-0.56,3,3
1772476451.412817,2544156,-0.08,-0.04,-0.02,-20.12,-78.87,100.12,-0.06,1.31,-0.25,0.04,-0.12,-0.08,0.56,-67.44,275.31,-1.06,0.19,-0.13,3,3
1772476451.453505,2544197,-0.13,-0.04,-0.05,-20.25,-78.94,100.06,-1.12,2.37,0.44,-0.02,-0.14,-0.08,0.69,-67.44,275.25,-1.56,-0.06,0.00,3,3
1772476451.493770,2544237,-0.09,-0.02,-0.06,-20.44,-79.06,100.00,-1.62,1.69,1.19,-0.03,-0.07,-0.10,0.75,-67.50,275.19,-1.94,0.94,0.69,3,3
1772476451.533767,2544277,-0.14,0.03,0.01,-20.75,-79.06,99.87,-2.25,-0.13,2.31,-0.04,0.00,-0.04,0.81,-67.50,275.12,-1.12,-0.06,0.37,3,2
1772476451.573587,2544317,-0.18,0.12,0.05,-21.00,-79.00,99.69,-1.69,-0.75,0.88,-0.03,-0.05,-0.08,0.75,-67.50,275.06,-1.19,0.31,1.56,4,3
1772476451.613387,2544357,-0.20,0.06,0.11,-20.94,-78.94,99.62,-1.25,-1.00,0.13,0.00,-0.05,-0.08,0.69,-67.50,275.00,-0.94,0.44,0.81,3,3
1772476451.653984,2544398,-0.24,0.06,0.11,-20.94,-78.94,99.50,-0.81,0.62,-0.06,0.00,-0.05,-0.08,0.69,-67.50,275.00,0.37,0.13,0.06,4,3
1772476451.694465,2544438,-0.12,0.00,0.05,-21.00,-79.00,99.44,-0.56,1.44,-0.25,-0.07,-0.06,-0.09,0.69,-67.56,275.00,0.19,-0.06,0.62,4,3
1772476451.734511,2544478,0.01,-0.01,-0.06,-21.00,-79.00,99.50,-1.12,-1.06,0.69,-0.06,-0.02,-0.09,0.69,-67.56,275.00,0.56,-0.13,0.56,4,3
1772476451.774051,2544518,0.02,-0.06,-0.03,-20.94,-78.94,99.44,-1.25,-3.44,0.94,-0.03,-0.01,-0.12,0.62,-67.56,275.00,0.25,0.00,0.37,3,2
1772476451.814125,2544557,-0.09,-0.08,-0.03,-20.75,-78.75,99.31,-2.62,-6.12,1.56,-0.02,-0.04,-0.08,0.62,-67.56,275.00,-0.31,-0.19,0.62,4,2
1772476451.854867,2544598,-0.04,-0.16,-0.03,-20.31,-78.44,99.12,-5.44,-7.87,2.25,0.00,-0.12,-0.07,0.56,-67.56,274.94,-0.56,0.00,0.37,4,2
1772476451.895136,2544638,-0.26,-0.05,0.02,-19.94,-78.12,98.87,-8.56,-9.88,3.81,0.00,-0.07,-0.03,0.62,-67.56,274.94,-0.50,-0.50,0.31,3,2
1772476451.935044,2544679,-0.36,0.06,0.15,-19.69,-77.75,98.50,-8.63,-5.50,3.00,-0.03,-0.11,0.00,0.50,-67.56,274.94,-0.50,0.25,1.31,4,2
1772476451.974868,2544718,-0.16,-0.06,0.04,-19.56,-77.56,98.00,-9.13,-3.56,2.75,-0.01,-0.04,-0.08,0.44,-67.56,274.87,-0.19,0.75,0.81,3,1
1772476452.014516,2544758,0.01,-0.05,0.00,-19.12,-77.37,97.62,-12.63,-5.19,1.19,-0.03,-0.08,-0.05,0.37,-67.56,274.87,0.00,0.44,0.81,3,1
1772476452.055670,2544799,-0.17,-0.01,0.03,-18.19,-77.12,97.19,-15.50,-6.81,-1.00,0.00,-0.07,-0.08,0.25,-67.56,274.81,-0.44,0.81,1.31,3,1
1772476452.095785,2544839,-0.18,0.16,0.10,-17.12,-76.94,96.75,-13.75,-4.94,-1.12,-0.05,-0.09,-0.13,0.13,-67.62,274.75,-0.37,1.06,1.31,2,1
1772476452.135944,2544879,-0.11,0.21,0.08,-16.37,-76.75,96.37,-9.44,-4.25,-0.25,-0.06,-0.18,0.00,0.00,-67.69,274.69,-0.69,2.06,2.25,3,1
1772476452.175426,2544919,-0.06,0.03,0.08,-16.00,-76.56,96.19,-6.00,-4.62,1.44,-0.07,0.05,-0.34,-0.13,-67.81,274.62,1.50,2.06,0.94,3,1
1772476452.215402,2544959,-0.56,-0.01,0.35,-16.31,-76.25,95.87,-4.00,-7.06,6.50,-0.03,-0.05,-0.05,-0.25,-67.81,274.62,0.88,0.69,-0.31,3,2
1772476452.256641,2545000,-0.40,0.01,0.25,-16.87,-76.00,95.50,-6.44,-2.94,5.56,-0.06,-0.06,-0.13,-0.13,-67.87,274.75,-0.25,-0.25,-1.25,5,3
1772476452.296512,2545040,-0.07,0.15,0.14,-17.25,-75.87,95.12,-5.25,1.81,2.50,-0.03,-0.05,-0.06,0.06,-67.81,274.75,-2.75,-1.69,-2.00,5,3
1772476452.336826,2545080,-0.33,0.17,0.22,-17.56,-75.94,94.87,-3.44,-0.88,1.81,-0.01,-0.16,-0.17,0.37,-67.81,274.75,-0.50,0.00,-1.06,5,4
1772476452.376122,2545120,-0.35,0.25,0.18,-17.87,-76.00,94.69,-0.81,3.81,2.69,0.05,-0.01,-0.22,0.37,-67.81,274.75,-0.69,-1.19,-0.50,5,5
1772476452.415762,2545160,-0.17,0.30,0.07,-18.62,-76.06,94.56,1.81,4.00,2.31,-0.06,0.07,-0.11,0.50,-67.75,274.75,1.31,-1.19,-0.81,5,5
1772476452.456830,2545200,-0.23,0.29,0.17,-19.31,-76.19,94.56,4.81,3.87,-0.75,0.00,-0.06,-0.14,0.56,-67.69,274.87,2.12,-0.94,-1.06,6,6
1772476452.497269,2545241,-0.54,0.44,0.31,-19.75,-76.37,94.75,10.38,9.56,-2.81,-0.03,-0.07,-0.17,0.62,-67.62,275.00,1.19,-2.00,-1.94,6,6
1772476452.537377,2545281,0.01,0.41,0.22,-20.87,-76.81,95.19,18.44,15.69,-2.62,-0.06,-0.20,-0.03,0.81,-67.56,275.06,0.44,-2.62,-1.12,5,6
1772476452.576878,2545320,-0.32,0.29,0.23,-22.62,-77.31,95.87,25.94,17.94,-2.06,-0.02,-0.07,-0.03,0.88,-67.50,275.06,-0.81,-1.87,-0.62,5,7
1772476452.616681,2545360,-0.23,0.00,0.21,-24.94,-78.06,96.75,30.94,21.56,-2.94,-0.02,-0.04,-0.11,1.00,-67.44,275.06,-0.88,-1.75,-0.62,4,7
1772476452.657660,2545401,0.09,-0.41,-0.03,-27.44,-78.81,97.69,26.69,19.00,-0.69,-0.03,-0.05,-0.12,1.12,-67.37,275.12,1.19,-2.00,-2.12,3,6
1772476452.698127,2545442,0.26,-0.48,-0.22,-30.00,-79.44,98.31,17.81,13.63,-0.06,-0.04,-0.13,-0.25,1.25,-67.31,275.25,2.69,-1.56,-2.37,3,6
1772476452.738418,2545482,0.14,-0.53,-0.28,-31.69,-79.81,98.75,7.31,7.19,-0.88,-0.02,-0.22,-0.11,1.44,-67.25,275.44,1.31,-1.94,-1.37,3,6
1772476452.777743,2545521,-0.01,-0.38,-0.17,-31.56,-80.19,99.06,0.25,4.75,-0.75,0.00,-0.13,-0.08,1.50,-67.25,275.44,1.94,-1.19,-0.69,2,6
1772476452.817367,2545561,0.00,-0.12,-0.17,-31.31,-80.44,99.06,-5.12,2.69,-1.56,-0.02,-0.10,-0.03,1.50,-67.19,275.50,0.31,-1.19,0.75,2,6
1772476452.858258,2545602,-0.17,0.00,-0.10,-30.94,-80.50,98.81,-4.44,0.62,-0.94,-0.04,-0.09,-0.04,1.44,-67.19,275.44,-0.25,-0.25,0.88,1,6
1772476452.898691,2545642,-0.14,0.04,0.00,-30.62,-80.50,98.87,-2.50,-0.31,-1.06,-0.02,-0.07,-0.03,1.37,-67.19,275.44,-0.56,-0.31,1.00,1,6
1772476452.938769,2545682,-0.23,0.00,0.00,-30.25,-80.50,98.87,-1.00,0.62,-1.56,-0.01,-0.07,-0.01,1.31,-67.19,275.44,-0.31,0.00,0.56,1,7
1772476452.978519,2545722,-0.23,-0.01,0.04,-30.06,-80.62,98.94,-0.44,1.37,-1.31,-0.03,-0.06,-0.01,1.31,-67.19,275.37,-0.25,-0.13,0.69,1,7
1772476453.018226,2545762,-0.14,-0.02,-0.01,-30.06,-80.69,99.00,-0.06,2.06,-1.19,0.00,-0.09,-0.08,1.31,-67.19,275.37,0.44,0.37,0.31,2,7
1772476453.058875,2545803,-0.07,-0.04,0.00,-30.06,-80.75,99.00,0.19,1.56,-0.75,-0.04,-0.09,-0.10,1.31,-67.19,275.44,0.62,0.25,0.19,2,7
1772476453.099478,2545843,-0.06,-0.07,-0.02,-30.12,-80.81,99.00,0.31,-0.06,-0.25,-0.03,-0.09,-0.11,1.31,-67.19,275.44,0.75,0.37,0.19,3,7
1772476453.139453,2545883,-0.11,-0.01,0.01,-30.06,-80.81,99.00,0.00,-1.06,-0.37,-0.03,-0.04,-0.11,1.31,-67.19,275.44,0.25,0.50,0.56,4,8
1772476453.178930,2545923,-0.11,0.00,0.06,-29.94,-80.75,99.00,-0.25,-1.56,-0.25,-0.05,-0.05,-0.12,1.31,-67.25,275.44,0.69,0.50,0.69,4,8
1772476453.218873,2545962,-0.11,-0.05,0.06,-29.69,-80.69,99.06,-0.19,-2.12,-0.44,-0.02,-0.07,-0.15,1.31,-67.25,275.44,0.56,0.56,0.44,4,8
1772476453.259860,2546003,-0.09,-0.04,0.04,-29.37,-80.62,99.06,-0.62,-2.87,0.00,-0.05,-0.14,-0.16,1.31,-67.25,275.44,-0.19,-0.37,0.62,4,8
1772476453.300303,2546044,-0.13,-0.05,0.06,-29.00,-80.50,99.00,-1.25,-2.81,0.94,-0.02,-0.01,-0.13,1.31,-67.25,275.44,-0.94,-0.06,0.62,4,7
1772476453.340222,2546084,-0.22,0.06,0.08,-28.81,-80.44,98.94,-1.19,-1.87,-0.13,-0.04,-0.10,-0.07,1.31,-67.25,275.44,0.62,-0.25,0.62,4,7
1772476453.379716,2546123,-0.21,0.00,0.09,-28.37,-80.37,99.00,-0.69,-1.19,-1.62,-0.02,-0.09,-0.11,1.25,-67.31,275.37,-0.69,0.13,1.19,5,8
1772476453.420392,2546163,-0.17,-0.06,0.09,-28.00,-80.37,99.00,-1.25,-0.37,-0.56,-0.02,-0.09,-0.17,1.19,-67.31,275.37,-0.56,-0.06,0.31,5,8
1772476453.460609,2546204,-0.16,0.00,0.06,-27.94,-80.37,98.94,-1.25,0.13,-0.37,-0.04,-0.08,-0.13,1.25,-67.31,275.37,0.13,-0.19,0.50,5,8
1772476453.500654,2546244,-0.17,0.01,0.06,-27.87,-80.37,98.94,-0.56,0.50,0.25,-0.08,-0.04,-0.10,1.25,-67.37,275.37,0.19,-0.44,0.31,5,8
1772476453.540775,2546284,-0.18,0.03,0.02,-27.94,-80.37,98.87,-0.25,0.88,0.06,-0.04,-0.08,-0.09,1.31,-67.37,275.37,0.37,-0.13,0.37,3,6
1772476453.581088,2546325,-0.11,0.01,0.02,-28.06,-80.44,98.87,-0.37,1.06,-0.25,-0.02,-0.03,-0.06,1.31,-67.37,275.37,0.50,0.13,0.31,3,6
1772476453.620654,2546364,-0.11,-0.02,0.00,-28.00,-80.50,98.94,-0.19,0.94,-1.37,-0.02,-0.05,-0.06,1.31,-67.37,275.37,0.31,-0.37,0.75,3,6
1772476453.661518,2546405,-0.11,-0.07,0.00,-27.69,-80.50,99.00,-0.50,-0.06,-1.12,-0.05,-0.06,-0.06,1.25,-67.37,275.37,0.62,-0.31,0.69,3,6
1772476453.701799,2546445,-0.17,-0.08,0.01,-27.37,-80.56,99.00,-1.31,-0.69,-0.88,-0.06,-0.04,-0.03,1.19,-67.37,275.37,0.88,-0.75,0.44,3,5
1772476453.741629,2546485,-0.32,-0.07,0.12,-27.12,-80.56,99.00,-1.94,1.19,-0.75,0.04,-0.02,-0.12,1.00,-67.44,275.37,2.19,2.44,1.62,3,5
1772476453.780996,2546525,0.45,-0.03,-0.10,-27.06,-80.62,98.94,-1.19,4.94,0.19,-0.07,0.00,-0.09,0.94,-67.44,275.37,1.25,-0.50,-0.06,3,4
1772476453.821670,2546565,0.00,0.02,-0.03,-27.00,-80.62,98.94,0.00,-1.25,-0.44,-0.01,-0.01,-0.16,0.88,-67.50,275.44,1.94,2.00,-0.19,3,4
1772476453.862505,2546606,-0.06,0.00,-0.04,-26.81,-80.56,98.94,1.06,-2.62,-0.37,-0.02,-0.07,-0.08,0.88,-67.50,275.44,-0.06,-0.06,-0.50,3,3
1772476453.902366,2546646,-0.13,-0.09,0.00,-26.56,-80.44,99.00,1.37,-3.25,-0.44,-0.06,-0.11,-0.03,0.88,-67.50,275.44,0.81,0.94,-0.25,2,4
1772476453.942574,2546686,-0.01,-0.19,-0.11,-26.25,-80.31,99.06,0.13,-4.37,0.62,-0.02,-0.12,-0.16,0.88,-67.56,275.50,0.19,1.31,0.25,3,3
1772476453.981780,2546725,0.07,-0.23,-0.11,-25.87,-80.12,98.94,-4.25,-7.50,2.44,0.00,-0.11,-0.08,0.81,-67.62,275.50,-0.19,0.81,1.25,4,3
1772476454.021551,2546765,0.35,-0.16,-0.18,-25.12,-79.81,98.69,-7.25,-9.69,3.62,-0.03,-0.09,-0.09,0.75,-67.62,275.44,0.81,3.12,1.25,4,3
1772476454.062546,2546806,-0.29,-0.11,0.02,-24.00,-79.25,98.31,-11.50,-13.25,3.31,0.01,-0.18,-0.05,0.56,-67.75,275.37,-0.31,0.94,1.62,5,3
1772476454.102956,2546847,-0.27,-0.06,0.06,-23.31,-78.81,97.81,-11.88,-7.19,3.56,-0.03,-0.12,-0.05,0.37,-67.81,275.31,0.37,2.25,1.62,6,3
1772476454.143059,2546887,0.01,-0.18,-0.06,-23.00,-78.56,97.31,-13.88,-7.50,4.81,0.00,-0.08,-0.09,0.13,-68.00,275.25,1.31,5.31,2.25,6,3
1772476454.182585,2546926,0.07,-0.17,-0.04,-22.62,-78.19,96.62,-18.87,-11.75,5.00,-0.01,-0.08,-0.15,0.00,-68.06,275.25,-0.75,1.69,2.00,6,3
1772476454.222362,2546966,-0.28,0.18,0.10,-21.75,-77.69,95.87,-21.00,-12.38,3.94,-0.02,-0.09,0.02,-0.06,-68.12,275.19,-0.19,0.88,1.31,5,3
1772476454.263435,2547007,-0.40,0.43,0.17,-20.56,-77.25,95.19,-16.37,-8.19,-0.44,-0.05,-0.14,-0.13,-0.25,-68.19,275.06,-0.94,1.94,2.31,6,3
1772476454.303798,2547047,-0.16,0.36,0.11,-19.69,-76.94,94.75,-9.88,-6.75,-0.44,-0.01,-0.12,-0.15,-0.44,-68.25,274.94,-1.56,1.12,2.06,6,3
1772476454.343691,2547087,0.00,0.20,0.02,-19.31,-76.69,94.50,-4.69,-6.37,1.19,0.00,-0.10,-0.21,-0.56,-68.31,274.81,-1.06,0.44,2.81,5,3
1772476454.383243,2547127,0.01,0.03,0.04,-19.19,-76.37,94.31,-2.50,-6.75,2.31,0.00,-0.03,-0.15,-0.75,-68.31,274.75,-0.56,0.25,3.06,4,3
1772476454.422974,2547167,-0.24,0.10,0.15,-19.06,-76.06,94.12,-3.00,-7.56,2.19,0.04,-0.06,-0.05,-0.94,-68.37,274.62,0.56,1.37,1.31,4,3
1772476454.464083,2547208,-0.28,0.07,0.21,-18.87,-75.81,94.00,-3.12,-5.00,0.69,-0.10,-0.26,-0.47,-1.12,-68.50,274.56,-3.44,0.94,4.31,2,2
1772476454.504709,2547248,-0.36,0.11,0.46,-18.50,-75.62,93.87,-3.12,-3.00,-0.19,-0.13,-0.14,-0.12,-1.44,-68.37,274.00,-12.63,-3.69,9.63,2,3
1772476454.544683,2547288,-0.71,0.53,0.66,-18.37,-75.56,93.81,1.50,4.00,-0.13,-0.09,-0.01,-0.06,-1.87,-68.25,273.37,-9.44,-2.50,8.44,2,3
1772476454.583679,2547328,-0.53,0.57,0.59,-19.19,-75.87,93.94,11.69,13.00,2.81,0.05,0.09,-0.04,-2.12,-68.19,273.06,-2.87,-2.06,3.31,3,4
1772476454.623631,2547367,-0.46,0.62,0.41,-21.75,-76.12,94.06,19.37,19.00,3.06,0.02,0.03,-0.07,-2.25,-68.12,273.00,2.81,-1.37,-0.81,3,4
1772476454.664689,2547408,-0.30,0.46,0.17,-24.50,-76.94,94.69,31.44,25.50,1.31,-0.02,0.02,-0.08,-2.12,-68.06,273.31,6.50,-0.75,-4.94,3,4
1772476454.704696,2547449,-0.02,0.28,0.06,-27.87,-77.87,95.69,38.69,26.19,-2.00,0.00,0.04,0.01,-1.81,-68.06,273.75,7.50,-0.19,-6.44,4,4
1772476454.745468,2547489,0.12,-0.25,-0.11,-31.19,-78.69,97.00,37.75,20.19,-3.44,-0.04,-0.07,-0.12,-1.44,-68.00,274.25,8.00,-1.44,-7.37,5,4
1772476454.784879,2547528,0.07,-0.53,-0.16,-33.63,-79.37,98.19,29.37,15.94,-6.31,-0.03,-0.17,-0.12,-1.12,-68.00,274.56,5.50,-2.62,-5.12,5,4
1772476454.824728,2547568,0.12,-0.88,-0.26,-35.06,-79.94,99.25,19.81,11.19,-6.31,0.03,-0.16,-0.05,-0.88,-67.87,274.87,4.62,-2.75,-2.81,5,4
1772476454.865667,2547609,-0.19,-0.76,-0.25,-35.25,-80.37,99.81,2.25,4.94,-7.37,-0.04,-0.19,-0.07,-0.81,-67.81,275.12,3.62,-2.87,-0.69,5,4
1772476454.905739,2547649,-0.10,-0.37,-0.21,-33.25,-81.00,100.37,-4.87,4.06,-6.87,0.00,-0.07,0.00,-0.88,-67.75,275.19,1.12,-1.31,1.12,6,5
1772476454.946224,2547689,-0.03,-0.22,-0.15,-31.50,-81.31,100.50,-8.25,0.56,-5.44,0.00,-0.07,-0.05,-1.00,-67.69,275.12,-0.19,-0.69,1.44,7,4
1772476454.985473,2547729,-0.13,0.01,-0.03,-30.00,-81.44,100.44,-8.06,0.75,-4.81,0.01,-0.07,0.00,-1.06,-67.69,275.06,-0.06,-0.81,0.31,7,4
1772476455.025202,2547769,-0.31,0.44,0.13,-29.06,-81.56,100.44,-1.19,1.31,-3.19,0.01,-0.08,0.00,-1.00,-67.69,275.06,-0.19,-0.25,-0.69,7,4
1772476455.065987,2547810,-0.47,0.34,0.14,-29.56,-81.62,100.62,9.81,4.87,0.81,-0.05,-0.04,0.00,-0.94,-67.69,275.12,-0.56,0.31,-0.44,8,4
1772476455.106464,2547850,-0.28,0.01,0.04,-31.37,-81.81,101.00,12.25,8.75,1.56,-0.15,-0.11,-0.21,-0.88,-67.69,275.12,0.19,0.06,0.25,8,4
1772476455.146519,2547890,0.14,-0.15,-0.06,-33.19,-82.00,101.31,9.25,5.19,1.19,0.00,-0.09,-0.20,-0.88,-67.69,275.19,0.06,-0.81,0.06,8,3
1772476455.186161,2547930,-0.02,-0.16,-0.09,-34.31,-82.12,101.56,5.56,2.56,0.62,-0.01,-0.03,-0.21,-0.88,-67.69,275.19,1.00,-1.31,-0.56,8,4
1772476455.225909,2547969,-0.03,-0.10,-0.03,-34.69,-82.25,101.69,1.25,2.37,-1.06,-0.05,-0.05,-0.13,-0.88,-67.69,275.19,1.00,-1.19,0.19,7,4
1772476455.267113,2548010,-0.03,-0.03,-0.05,-34.44,-82.31,101.75,-1.69,0.25,-2.00,-0.06,-0.07,-0.07,-0.88,-67.62,275.25,1.37,-1.12,0.13,7,4
1772476455.307576,2548051,-0.12,-0.03,-0.03,-33.69,-82.37,101.75,-2.12,-1.62,-2.25,-0.04,-0.07,-0.10,-0.94,-67.62,275.31,0.88,-0.56,0.44,6,3
1772476455.347811,2548091,-0.15,-0.05,-0.01,-32.88,-82.37,101.75,-2.06,-1.37,-2.06,-0.02,-0.12,-0.06,-0.94,-67.62,275.31,-0.37,0.00,0.69,5,3
1772476455.387219,2548130,-0.13,-0.07,0.00,-32.13,-82.37,101.81,-2.19,-1.37,-1.37,-0.03,-0.11,-0.06,-0.94,-67.62,275.31,-1.06,-0.06,0.31,5,3
1772476455.426777,2548170,-0.17,-0.07,0.00,-31.81,-82.37,101.75,-3.06,-0.13,0.50,-0.03,-0.11,-0.06,-0.81,-67.62,275.25,-0.69,-0.94,-0.19,4,2
1772476455.467613,2548211,-0.33,-0.01,0.05,-31.62,-82.31,101.56,-3.94,0.56,0.62,-0.01,-0.12,0.00,-0.75,-67.62,275.25,-1.06,-0.75,0.50,3,2
1772476455.507878,2548252,-0.20,0.03,-0.03,-31.75,-82.37,101.44,-3.75,2.56,0.25,0.01,-0.06,0.00,-0.69,-67.62,275.25,-0.62,-0.31,0.50,2,2
1772476455.548001,2548292,-0.06,0.00,-0.09,-31.94,-82.44,101.31,-3.44,1.87,-0.37,0.01,-0.05,-0.07,-0.69,-67.62,275.25,0.06,0.75,0.44,2,2
1772476455.587558,2548331,-0.04,0.00,-0.09,-32.13,-82.50,101.25,-3.56,1.87,-0.50,-0.02,-0.05,-0.12,-0.69,-67.62,275.25,0.37,0.94,0.00,2,2
1772476455.627286,2548371,-0.06,0.01,-0.04,-32.13,-82.56,101.19,-2.56,0.06,0.19,-0.03,-0.08,-0.12,-0.69,-67.69,275.25,0.62,0.56,-0.50,3,2
1772476455.668167,2548412,-0.20,0.00,0.02,-32.25,-82.50,101.00,-1.37,-1.25,2.00,-0.04,-0.06,-0.08,-0.69,-67.69,275.31,0.44,0.31,-0.37,3,2
1772476455.708544,2548452,-0.16,-0.01,0.00,-32.56,-82.44,100.87,-1.56,-0.94,2.12,0.01,-0.08,-0.13,-0.62,-67.69,275.31,0.37,0.50,0.25,2,2
1772476455.748781,2548492,-0.24,-0.02,0.06,-32.88,-82.37,100.75,-2.62,-0.25,1.69,0.00,-0.03,0.01,-0.69,-67.69,275.31,0.81,0.00,0.69,5,3
1772476455.788039,2548532,-0.18,0.00,-0.02,-32.94,-82.31,100.62,-3.69,0.50,0.44,0.00,-0.05,0.01,-0.75,-67.69,275.31,0.75,-0.13,1.12,6,5
1772476455.828189,2548571,-0.04,-0.06,-0.01,-32.81,-82.37,100.50,-3.87,0.81,-0.88,-0.01,-0.01,-0.18,-0.88,-67.75,275.25,-0.37,1.69,1.25,6,5
1772476455.869144,2548612,-0.03,-0.06,-0.07,-32.38,-82.37,100.50,-4.00,-1.06,-0.31,-0.04,-0.13,-0.19,-0.94,-67.81,275.19,-0.31,1.25,0.00,6,5
1772476455.909657,2548653,0.07,-0.12,-0.07,-31.94,-82.31,100.44,-5.31,-5.25,2.19,-0.05,-0.03,-0.19,-0.94,-67.94,275.25,-0.69,1.06,-0.44,6,5
1772476455.949957,2548693,-0.11,-0.13,-0.03,-31.44,-82.00,100.19,-7.56,-8.25,4.25,-0.08,-0.07,-0.08,-0.81,-67.94,275.25,-0.13,-0.37,-1.00,6,5
1772476455.989191,2548733,0.08,-0.19,-0.10,-30.75,-81.62,99.81,-10.25,-10.38,4.62,-0.04,-0.12,-0.15,-0.75,-68.00,275.25,-1.44,-0.31,0.31,7,5
1772476456.028872,2548772,0.07,-0.17,-0.05,-29.50,-81.06,99.19,-15.75,-16.94,4.94,-0.01,-0.07,-0.12,-0.62,-68.00,275.25,-1.81,-1.12,0.44,7,5
1772476456.069687,2548813,-0.47,0.09,0.13,-27.56,-80.37,98.44,-19.94,-16.37,3.94,0.01,-0.15,0.03,-0.56,-67.94,275.12,-1.81,-0.88,1.25,7,5
1772476456.109989,2548854,-0.39,0.34,0.21,-26.12,-79.87,97.75,-17.75,-7.50,1.37,0.00,-0.12,0.01,-0.69,-67.94,275.00,-1.44,0.31,2.12,7,5
1772476456.150433,2548894,-0.13,0.22,0.01,-25.19,-79.62,97.12,-13.75,-5.37,-0.06,-0.05,-0.06,-0.04,-0.81,-68.00,274.94,-0.31,1.37,1.37,5,4
1772476456.189610,2548933,0.18,0.00,-0.03,-24.25,-79.44,96.69,-12.38,-6.50,0.44,-0.06,-0.04,-0.09,-0.88,-68.06,274.94,-0.19,1.37,0.62,4,3
1772476456.229689,2548973,0.11,-0.03,-0.04,-23.00,-79.00,96.25,-13.00,-13.81,0.56,-0.01,-0.12,-0.14,-0.88,-68.06,274.87,-1.06,-0.69,0.31,4,2
1772476456.270574,2549014,-0.14,-0.02,-0.01,-21.19,-78.44,95.87,-15.88,-17.06,0.25,0.03,-0.15,-0.05,-0.81,-68.06,274.87,-0.50,-0.50,0.37,3,2
1772476456.310886,2549054,-0.24,0.10,0.03,-19.56,-77.87,95.37,-16.00,-14.50,-0.19,-0.05,-0.16,-0.05,-0.81,-68.06,274.87,0.25,0.25,0.94,3,3
1772476456.351002,2549095,-0.31,0.31,0.12,-18.19,-77.37,94.81,-12.94,-12.69,-0.56,0.00,-0.11,-0.09,-0.94,-68.12,274.81,-0.81,1.87,2.50,3,3
1772476456.390543,2549134,-0.39,0.34,0.19,-17.37,-76.87,94.62,-8.56,-9.63,-0.19,-0.05,-0.09,-0.09,-1.06,-68.19,274.75,-0.06,1.12,1.94,2,3
1772476456.430054,2549174,-0.45,0.43,0.29,-17.12,-76.56,94.37,-3.44,-6.12,0.50,0.01,-0.10,-0.07,-1.19,-68.19,274.69,0.62,0.88,1.69,2,3
1772476456.470818,2549215,-0.49,0.43,0.29,-17.62,-76.37,94.31,5.50,0.69,1.19,-0.06,-0.06,-0.03,-1.31,-68.25,274.69,1.50,0.19,0.31,2,2
1772476456.511506,2549255,-0.39,0.38,0.28,-18.56,-76.37,94.37,12.13,6.44,0.81,-0.05,-0.10,-0.06,-1.37,-68.25,274.75,1.00,-0.50,0.37,2,2
1772476456.551429,2549295,-0.14,0.19,0.21,-19.94,-76.62,94.81,18.44,11.44,0.56,0.06,-0.01,-0.13,-1.44,-68.31,274.75,0.81,-0.25,0.06,2,2
1772476456.590982,2549335,-0.04,-0.07,0.10,-21.56,-76.94,95.31,21.00,9.88,1.94,-0.10,0.01,-0.16,-1.44,-68.25,274.75,1.69,-1.12,-1.06,2,2
1772476456.630518,2549374,0.06,-0.27,0.00,-23.31,-77.19,95.81,18.56,6.81,2.75,-0.05,-0.05,-0.28,-1.50,-68.31,274.87,4.31,2.81,-0.44,2,2
1772476456.671786,2549415,0.10,-0.28,-0.01,-24.44,-77.31,96.25,10.13,1.87,1.56,-0.01,-0.06,-0.16,-1.56,-68.37,274.94,1.50,-1.44,-0.06,3,2
1772476456.712357,2549456,-0.20,-0.20,0.03,-24.75,-77.37,96.44,4.81,-0.69,-0.50,0.00,-0.08,-0.04,-1.62,-68.37,275.00,1.50,-1.56,-0.50,3,2
1772476456.752354,2549496,-0.25,-0.12,0.05,-24.69,-77.37,96.62,1.12,2.00,-2.31,-0.07,-0.10,-0.01,-1.62,-68.31,275.06,0.88,-0.62,0.62,2,2
1772476456.791821,2549535,-0.18,-0.18,0.02,-24.37,-77.50,96.69,-0.50,2.31,-2.56,-0.06,-0.03,0.02,-1.69,-68.31,275.06,1.37,0.06,0.37,3,2
1772476456.831690,2549575,-0.38,-0.05,0.05,-24.06,-77.62,96.75,-1.50,3.25,-2.25,-0.01,-0.06,-0.01,-1.75,-68.37,275.06,2.12,2.62,0.31,4,3
1772476456.872559,2549616,-0.16,-0.13,-0.01,-23.87,-77.81,96.87,-0.37,4.81,-2.19,0.06,-0.06,0.00,-1.81,-68.44,275.19,1.81,0.94,-1.19,4,3
1772476456.912878,2549656,-0.10,-0.08,-0.04,-23.94,-78.06,96.94,-0.06,6.31,-1.12,0.01,-0.03,-0.13,-1.75,-68.50,275.25,2.25,0.81,-1.31,4,3
1772476456.952987,2549697,-0.07,-0.02,0.02,-24.25,-78.31,97.00,0.88,5.19,-1.12,-0.03,-0.02,-0.10,-1.75,-68.56,275.31,1.06,0.62,-0.62,5,3
1772476456.992559,2549736,-0.04,-0.06,-0.02,-24.44,-78.44,97.06,1.87,1.94,-1.12,-0.02,-0.03,-0.13,-1.69,-68.56,275.37,0.56,0.50,-1.06,5,3
1772476457.032274,2549776,-0.25,-0.08,0.08,-24.50,-78.56,97.19,2.12,2.00,-0.69,-0.04,-0.09,-0.10,-1.62,-68.56,275.44,0.06,0.44,-0.56,4,2
1772476457.073371,2549817,-0.21,-0.09,0.05,-24.69,-78.62,97.31,1.44,2.87,-0.25,-0.02,-0.09,-0.05,-1.56,-68.62,275.44,0.56,-0.19,0.19,4,2
1772476457.113612,2549857,-0.10,-0.09,-0.03,-24.94,-78.75,97.31,0.13,2.56,0.25,0.00,-0.10,-0.08,-1.56,-68.62,275.44,0.00,-0.25,0.50,4,2
1772476457.153624,2549897,-0.07,-0.07,-0.02,-25.12,-78.81,97.31,-1.12,1.75,0.56,0.00,-0.06,-0.07,-1.56,-68.62,275.44,0.31,0.19,0.31,4,2
1772476457.193165,2549937,-0.09,-0.01,0.00,-25.19,-78.87,97.31,-1.19,1.81,-0.06,-0.01,-0.06,-0.09,-1.50,-68.62,275.44,0.00,0.19,0.69,3,2
1772476457.233369,2549977,-0.14,0.03,0.03,-25.19,-78.94,97.25,-0.50,0.81,-1.06,0.00,-0.03,-0.07,-1.56,-68.62,275.44,-0.06,0.31,0.56,2,1
1772476457.273982,2550018,-0.17,0.04,0.00,-25.00,-79.00,97.31,0.62,0.81,-1.62,-0.02,-0.06,-0.09,-1.56,-68.69,275.44,-0.06,1.12,0.37,2,1
1772476457.314143,2550058,-0.14,-0.07,0.00,-24.81,-79.06,97.44,1.12,1.19,-1.37,-0.04,-0.06,-0.08,-1.56,-68.75,275.44,-0.13,1.44,0.31,2,1
1772476457.354636,2550098,-0.19,-0.04,0.00,-24.75,-79.12,97.50,1.19,1.19,-1.12,-0.04,-0.12,-0.05,-1.56,-68.81,275.44,-0.31,0.62,0.69,1,2
1772476457.394163,2550138,-0.19,-0.05,-0.04,-24.75,-79.19,97.56,0.44,1.37,-0.44,-0.06,-0.05,-0.08,-1.62,-68.81,275.37,-1.00,-0.19,1.75,2,2
1772476457.434177,2550178,-0.13,0.07,0.00,-24.94,-79.25,97.56,0.94,0.94,-0.37,-0.06,-0.07,-0.01,-1.69,-68.75,275.31,-1.00,-3.12,0.25,2,2
1772476457.474859,2550218,-0.22,0.05,0.05,-25.06,-79.25,97.62,2.31,1.00,-0.62,-0.03,-0.12,-0.02,-1.62,-68.62,275.31,1.00,-0.81,-0.56,2,2
1772476457.515211,2550259,-0.17,-0.04,0.04,-25.12,-79.31,97.69,3.06,1.81,-1.06,-0.01,-0.09,-0.13,-1.62,-68.62,275.37,0.81,-0.25,-0.44,4,3
1772476457.555361,2550299,-0.14,-0.13,0.06,-25.19,-79.44,97.87,2.75,1.94,-0.56,-0.03,-0.14,-0.12,-1.44,-68.69,275.50,0.62,0.00,-1.25,4,4
1772476457.594623,2550338,-0.14,-0.10,0.02,-25.44,-79.50,97.94,1.87,2.37,0.81,-0.06,-0.07,-0.11,-1.37,-68.69,275.50,1.31,0.19,-1.06,4,4
1772476457.634283,2550378,-0.08,-0.11,0.03,-25.87,-79.56,97.94,1.25,2.06,1.94,-0.04,0.01,-0.11,-1.31,-68.75,275.62,2.87,1.25,-2.19,4,5
1772476457.675194,2550419,-0.12,0.00,-0.01,-26.50,-79.50,97.87,1.50,0.13,2.94,-0.07,-0.01,-0.05,-1.12,-68.81,275.87,4.56,1.06,-3.62,4,5
1772476457.715611,2550459,-0.19,-0.02,0.06,-27.00,-79.50,97.87,3.06,-0.31,1.00,0.00,-0.08,-0.13,-1.00,-68.87,276.06,1.62,2.69,-1.94,5,6
1772476457.755853,2550500,-0.23,-0.16,0.11,-27.25,-79.50,97.87,1.81,0.00,1.94,-0.07,-0.10,-0.07,-0.81,-68.94,276.12,0.94,0.31,-1.69,5,6
1772476457.795448,2550539,-0.22,-0.12,0.08,-27.69,-79.44,97.87,0.62,1.12,1.87,-0.04,-0.10,-0.11,-0.75,-68.94,276.19,-0.13,0.69,-0.88,5,6
1772476457.835681,2550579,-0.19,-0.07,0.03,-28.00,-79.50,97.81,-1.00,1.19,0.56,-0.06,-0.08,-0.05,-0.69,-68.94,276.19,-0.94,-0.37,0.00,5,6
1772476457.876453,2550620,-0.13,-0.03,-0.02,-28.06,-79.50,97.75,-1.75,0.62,0.19,-0.03,-0.07,-0.04,-0.69,-68.94,276.12,-0.94,0.31,0.62,6,6
1772476457.916641,2550660,0.00,-0.01,-0.08,-28.00,-79.50,97.69,-1.81,-1.12,0.25,0.00,-0.06,-0.07,-0.62,-68.94,276.12,-0.62,-0.31,0.31,4,5
1772476457.956780,2550700,-0.08,0.50,-0.05,-27.69,-79.44,97.69,2.50,-4.12,-1.87,0.00,-0.09,-0.03,-0.69,-68.94,276.06,-0.13,-0.25,0.37,5,4
1772476457.996057,2550740,0.02,0.40,-0.09,-27.06,-79.31,98.00,10.06,-5.00,-3.19,-0.05,-0.05,-0.06,-0.62,-68.94,276.06,0.25,0.50,-0.50,5,4
1772476458.035942,2550779,0.19,-0.42,-0.27,-26.44,-79.12,98.50,12.31,-9.81,-1.12,-0.07,-0.06,-0.24,-0.56,-68.94,276.12,1.56,1.62,-0.69,5,4
1772476458.077089,2550820,0.46,-0.84,-0.38,-25.31,-78.56,98.69,-5.69,-22.12,-0.31,-0.05,-0.05,-0.13,-0.50,-69.00,276.19,0.56,-0.81,-0.62,6,4
1772476458.117443,2550861,-0.37,-0.52,-0.01,-22.87,-77.75,98.44,-19.50,-23.12,-2.69,0.00,-0.25,-0.01,-0.50,-69.00,276.12,-1.06,-0.25,2.06,5,3
1772476458.157398,2550901,-0.42,0.12,0.18,-20.25,-77.06,97.94,-23.56,-15.44,-3.56,0.03,-0.19,0.02,-0.62,-69.00,276.00,-1.50,0.13,2.94,5,3
1772476458.196791,2550940,-0.47,0.33,0.19,-18.06,-76.62,97.44,-20.25,-11.69,-3.56,-0.01,-0.16,-0.06,-0.75,-69.00,275.87,-2.62,1.00,3.37,5,4
1772476458.236652,2550980,-0.35,0.34,0.15,-16.75,-76.37,97.06,-12.63,-5.37,-1.94,-0.05,-0.11,-0.11,-0.94,-69.06,275.69,-2.87,1.25,3.50,5,5
1772476458.277266,2551021,-0.12,0.23,0.07,-16.50,-76.19,96.75,-3.00,-4.31,1.69,0.00,-0.06,-0.14,-1.19,-69.12,275.44,-2.06,1.00,2.50,4,6
1772476458.317814,2551062,-0.19,0.10,0.03,-16.69,-75.94,96.62,1.19,-5.12,2.94,-0.03,-0.08,-0.16,-1.31,-69.19,275.31,-1.25,0.37,1.75,6,9
1772476458.357927,2551102,-0.07,0.09,0.09,-17.06,-75.75,96.56,1.69,-4.19,3.87,-0.02,-0.03,-0.10,-1.44,-69.19,275.25,-0.25,1.06,1.44,7,9
1772476458.397545,2551141,-0.05,0.11,0.09,-17.50,-75.56,96.50,2.56,-4.56,2.37,-0.04,-0.05,-0.21,-1.50,-69.25,275.25,0.00,1.00,0.37,7,10
1772476458.437117,2551181,-0.23,0.12,0.15,-17.69,-75.37,96.50,3.62,-4.37,1.25,-0.05,-0.09,-0.13,-1.50,-69.31,275.25,0.00,0.50,0.44,7,10
1772476458.477944,2551222,-0.40,0.23,0.26,-17.81,-75.25,96.62,6.37,-0.81,0.00,0.01,-0.02,-0.09,-1.50,-69.37,275.25,-0.13,1.12,0.56,6,11
1772476458.518445,2551262,-0.81,0.38,0.36,-18.25,-75.25,96.87,12.13,5.81,-0.94,-0.10,-0.14,0.00,-1.69,-69.37,275.12,-0.44,-0.06,1.94,6,12
1772476458.558640,2551302,-0.78,0.49,0.43,-19.06,-75.62,97.37,21.50,16.50,-2.19,-0.08,-0.21,0.00,-1.75,-69.37,275.06,-1.62,-1.19,1.56,8,13
1772476458.598181,2551342,-0.31,0.19,0.32,-20.87,-76.31,98.12,26.12,21.12,-1.50,-0.01,0.00,-0.13,-1.81,-69.31,275.00,0.81,-0.13,-1.25,8,14
1772476458.637860,2551382,0.12,-0.26,0.05,-23.19,-77.06,98.94,27.44,20.37,0.37,-0.01,0.02,-0.28,-1.69,-69.37,275.06,3.06,-0.31,-3.19,8,14
1772476458.679019,2551423,0.25,-0.44,-0.08,-25.50,-77.69,99.62,20.50,15.19,0.62,-0.04,-0.07,-0.30,-1.44,-69.44,275.37,3.87,-0.56,-3.44,8,14
1772476458.719395,2551463,0.14,-0.49,-0.10,-26.87,-78.12,100.19,11.44,8.44,0.13,-0.15,-0.18,-0.30,-1.25,-69.44,275.56,3.50,-1.19,-1.62,6,12
1772476458.759533,2551503,0.06,-0.35,-0.04,-27.12,-78.44,100.50,0.94,2.75,1.81,-0.05,-0.06,-0.06,-1.25,-69.44,275.62,1.69,-2.06,-0.06,5,12
1772476458.798868,2551543,-0.08,-0.16,0.06,-27.00,-78.50,100.44,-5.69,1.19,0.37,-0.03,-0.02,-0.10,-1.25,-69.44,275.69,1.25,-1.50,0.06,5,12
1772476458.838700,2551582,-0.29,0.00,0.09,-26.44,-78.56,100.25,-8.75,0.75,-1.69,0.01,-0.07,-0.01,-1.31,-69.37,275.69,0.94,-1.50,0.31,5,11
1772476458.879489,2551623,-0.26,0.11,0.12,-26.06,-78.69,100.06,-7.56,3.37,-2.00,0.00,-0.06,-0.02,-1.31,-69.31,275.75,0.62,-1.50,0.19,5,11
1772476458.919878,2551664,-0.29,0.15,0.02,-25.81,-78.87,99.94,-4.56,6.12,-2.00,-0.04,-0.06,0.01,-1.31,-69.25,275.75,0.62,-1.50,0.06,5,10
1772476458.960139,2551704,-0.09,0.05,-0.09,-25.94,-79.12,99.87,-2.19,7.69,-2.44,0.02,-0.02,0.00,-1.31,-69.19,275.75,0.88,-1.62,-0.31,3,8
1772476458.999693,2551743,-0.04,0.00,-0.08,-26.06,-79.44,99.87,-1.12,6.75,-2.87,-0.01,-0.04,-0.06,-1.37,-69.12,275.81,0.81,-0.69,-0.25,4,8
1772476459.039398,2551783,-0.04,-0.06,-0.07,-26.06,-79.69,99.94,0.06,4.87,-2.62,-0.02,-0.05,-0.05,-1.37,-69.12,275.81,0.31,-0.44,0.00,4,7
1772476459.080511,2551824,-0.02,-0.09,-0.06,-26.00,-79.87,100.06,0.31,3.00,-1.87,-0.01,-0.02,-0.07,-1.37,-69.12,275.81,0.75,-0.75,-0.37,4,6
1772476459.121019,2551865,-0.10,-0.06,-0.02,-25.87,-80.00,100.12,0.13,1.75,-1.06,-0.03,-0.08,-0.05,-1.37,-69.12,275.81,0.44,-0.25,-0.37,3,5
1772476459.161147,2551905,-0.12,-0.07,0.00,-25.94,-80.06,100.12,-0.13,0.81,-0.25,-0.03,-0.07,-0.11,-1.37,-69.12,275.81,-0.13,-0.25,0.13,4,5
1772476459.201238,2551945,-0.17,-0.04,0.07,-25.94,-80.06,100.12,-0.13,-0.06,-0.31,0.01,-0.10,-0.08,-1.31,-69.12,275.87,-0.31,-0.62,0.06,4,4
1772476459.240597,2551984,-0.25,-0.03,0.09,-25.94,-80.06,100.12,-0.50,1.31,-0.13,0.00,-0.06,-0.05,-1.31,-69.12,275.81,-0.75,-0.62,0.06,4,4
1772476459.281434,2552025,-0.30,-0.04,0.10,-26.06,-80.12,100.12,-1.19,3.25,-0.37,-0.05,-0.13,0.00,-1.25,-69.12,275.81,-1.06,-0.06,0.31,4,3
1772476459.321061,2552065,-0.45,0.00,0.13,-26.37,-80.31,100.06,-2.37,8.75,-1.69,0.00,-0.02,0.02,-1.19,-69.19,275.81,0.37,0.88,0.31,4,3
1772476459.361498,2552105,-0.20,0.12,0.11,-26.75,-80.75,100.06,-3.31,12.19,-5.12,-0.03,-0.04,-0.10,-1.37,-69.25,275.75,0.25,1.31,2.25,5,3
1772476459.400939,2552145,0.05,0.12,-0.01,-26.62,-81.19,100.12,-2.94,9.69,-6.50,-0.12,-0.07,-0.17,-1.50,-69.25,275.69,-1.44,0.75,2.56,5,3
1772476459.440744,2552184,0.01,0.09,-0.12,-25.69,-81.56,100.31,-1.50,4.25,-6.81,-0.03,-0.07,-0.09,-1.69,-69.25,275.56,-2.69,-0.19,1.44,4,3
1772476459.481934,2552225,0.09,-0.04,-0.21,-24.25,-81.75,100.56,-0.19,-1.31,-6.50,0.04,-0.05,-0.09,-1.56,-69.19,275.44,-2.69,-2.31,-0.13,5,3
1772476459.522570,2552266,0.11,-0.09,-0.32,-22.75,-81.75,100.75,-1.25,-5.12,-2.87,-0.01,-0.01,-0.14,-1.31,-69.12,275.50,-1.75,-3.87,-2.75,5,3
1772476459.562426,2552306,-0.18,0.03,0.11,-21.81,-81.56,100.81,-0.25,-5.50,0.37,0.04,-0.19,0.07,-0.94,-69.00,275.50,-2.37,-1.87,-1.25,3,2
1772476459.601820,2552346,-0.45,0.00,0.27,-21.56,-81.44,100.81,1.25,-3.25,1.56,-0.04,-0.20,-0.02,-0.75,-68.94,275.50,-0.25,1.94,-0.06,3,2
1772476459.641517,2552385,-0.20,-0.06,0.17,-22.06,-81.31,100.75,1.25,-0.37,3.19,-0.02,-0.14,-0.19,-0.75,-69.06,275.56,2.94,2.87,1.31,3,3
1772476459.682354,2552426,-0.13,0.03,0.02,-23.06,-81.25,100.56,-1.75,-0.56,5.00,-0.07,0.02,-0.14,-1.12,-69.19,275.56,2.12,0.56,2.50,3,2
1772476459.722854,2552467,-0.12,0.12,0.02,-23.87,-81.12,100.37,-2.37,-2.56,2.50,-0.05,0.00,-0.01,-1.31,-69.19,275.50,0.06,-1.44,1.50,2,2
1772476459.762998,2552507,-0.18,0.06,0.09,-23.75,-81.00,100.25,-1.56,-3.00,-1.25,0.00,-0.02,0.00,-1.37,-69.12,275.44,-1.50,-0.88,0.62,1,1
1772476459.802516,2552546,-0.11,-0.02,0.04,-22.94,-80.94,100.31,-1.19,-3.00,-2.44,0.00,-0.04,-0.07,-1.37,-69.12,275.44,-1.94,-0.19,0.44,1,1
1772476459.842197,2552586,0.00,-0.17,-0.02,-22.12,-80.87,100.31,-1.87,-3.19,-1.69,0.00,-0.06,-0.17,-1.25,-69.12,275.37,-1.50,0.69,0.00,1,1
1772476459.883296,2552627,0.09,-0.20,-0.08,-21.50,-80.69,100.25,-5.12,-8.00,3.06,-0.06,-0.06,-0.12,-1.19,-69.19,275.31,-1.12,0.50,-0.06,2,2
1772476459.923683,2552667,0.24,-0.26,-0.16,-21.12,-80.31,99.94,-8.81,-14.19,5.94,-0.06,-0.06,-0.15,-1.12,-69.19,275.31,-0.25,0.00,-0.50,2,2
1772476459.963953,2552708,0.24,-0.23,-0.16,-20.37,-79.62,99.37,-15.63,-24.87,6.62,-0.07,-0.01,-0.10,-1.12,-69.19,275.31,-0.31,-1.62,-0.56,2,2
1772476460.003443,2552747,0.02,-0.16,-0.01,-18.87,-78.62,98.62,-20.56,-28.69,6.06,-0.03,-0.07,-0.02,-1.12,-69.12,275.31,-1.06,-1.87,0.56,4,3
1772476460.043027,2552787,-0.38,-0.05,0.06,-17.12,-77.44,97.75,-25.69,-31.75,4.56,0.09,-0.15,0.01,-1.06,-69.06,275.31,-1.81,-1.87,1.44,4,3
1772476460.083679,2552828,-0.79,0.20,0.36,-15.38,-76.37,96.81,-26.50,-18.31,1.06,0.03,-0.19,0.14,-1.06,-68.94,275.19,-2.31,0.31,2.94,4,3
1772476460.124376,2552868,-0.60,0.34,0.29,-13.88,-75.87,96.06,-21.06,-9.44,-0.44,-0.15,-0.08,0.13,-1.19,-68.94,275.12,-1.56,1.44,2.69,5,3
1772476460.164478,2552908,-0.41,0.34,0.21,-13.00,-75.56,95.50,-14.50,-4.06,0.75,-0.04,-0.04,-0.01,-1.31,-69.06,275.00,-0.56,1.94,0.81,5,3
1772476460.203988,2552948,-0.24,0.37,0.19,-12.88,-75.37,95.06,-7.31,-1.87,1.31,-0.05,-0.05,-0.13,-1.31,-69.12,274.94,-0.94,1.37,0.56,6,4
1772476460.243643,2552987,-0.10,0.27,0.14,-13.13,-75.25,94.75,-2.75,-3.19,1.87,-0.04,-0.08,-0.19,-1.25,-69.19,274.94,-0.44,0.94,0.06,6,3
1772476460.284521,2553028,-0.09,0.08,0.16,-13.56,-75.06,94.62,1.31,-2.94,3.44,-0.02,-0.07,-0.19,-1.25,-69.19,274.94,-0.88,0.00,0.62,6,3
1772476460.324901,2553069,-0.08,0.00,0.17,-14.06,-74.94,94.56,1.19,-2.19,3.56,-0.09,-0.02,-0.22,-1.25,-69.25,274.87,-2.06,0.56,1.75,6,4
1772476460.365171,2553109,-0.21,0.00,0.22,-14.50,-74.81,94.44,-0.75,-3.94,4.06,-0.07,0.00,-0.20,-1.25,-69.25,274.87,-0.56,-0.19,0.50,6,3
1772476460.404549,2553148,-0.19,0.00,0.25,-14.81,-74.62,94.25,-1.56,-2.75,2.87,0.01,-0.12,-0.10,-1.25,-69.25,274.87,0.25,-2.44,-1.69,4,2
1772476460.444478,2553188,-0.29,0.03,0.23,-14.88,-74.50,94.06,-3.37,-2.69,1.81,-0.04,-0.07,-0.10,-1.12,-69.19,274.87,-1.50,-1.75,-0.62,4,2
1772476460.485448,2553229,-0.14,0.09,0.21,-14.81,-74.37,93.94,-3.25,0.75,0.81,-0.02,-0.04,-0.01,-0.94,-69.12,274.87,-1.69,-1.94,-0.88,4,2
1772476460.525743,2553270,-0.09,0.03,0.13,-14.75,-74.37,93.81,-1.31,1.87,1.00,-0.02,-0.13,-0.03,-0.75,-69.06,274.87,0.00,-1.19,-1.12,3,2
1772476460.565824,2553310,-0.32,0.05,0.06,-15.00,-74.44,93.75,-0.94,3.06,1.87,0.02,-0.08,-0.08,-0.69,-69.00,274.94,0.44,-1.50,-0.69,3,2
1772476460.605176,2553349,-0.13,0.07,0.00,-15.31,-74.56,93.62,-0.94,4.06,1.62,-0.01,-0.03,0.00,-0.62,-68.94,274.94,1.25,-2.00,-0.88,3,2
1772476460.644788,2553389,-0.04,0.13,0.04,-15.69,-74.75,93.56,0.13,4.50,0.56,0.00,-0.07,-0.01,-0.56,-68.87,275.06,1.87,-0.88,-1.37,2,2
1772476460.685948,2553430,-0.21,0.12,-0.01,-15.88,-74.94,93.62,2.37,4.87,-1.31,0.00,-0.13,-0.01,-0.50,-68.87,275.19,1.37,-0.75,-0.50,3,1
1772476460.726464,2553470,-0.04,0.08,-0.02,-16.00,-75.06,93.69,4.37,1.94,-0.62,-0.01,-0.14,-0.07,-0.50,-68.87,275.19,0.88,-0.56,-0.37,3,1
1772476460.766640,2553510,-0.07,-0.04,-0.05,-16.25,-75.12,93.87,4.94,1.19,-0.06,0.03,-0.14,-0.03,-0.44,-68.87,275.19,-0.06,-0.06,0.50,3,1
1772476460.805900,2553550,0.03,-0.05,-0.07,-16.50,-75.19,94.00,4.69,-0.31,0.88,0.00,-0.10,-0.11,-0.44,-68.87,275.19,0.19,-0.31,0.37,3,2
1772476460.845541,2553589,-0.20,0.00,0.05,-16.81,-75.06,94.06,4.31,-3.56,2.44,-0.02,-0.14,-0.05,-0.37,-68.87,275.25,0.81,-0.06,0.19,4,2
1772476460.886492,2553630,-0.28,0.05,0.10,-17.25,-74.87,94.12,4.19,-1.50,2.25,0.03,-0.15,0.00,-0.44,-68.87,275.25,0.37,-0.25,1.00,4,3
1772476460.926955,2553671,-0.40,-0.01,0.10,-17.62,-74.87,94.12,4.19,1.75,1.62,-0.01,-0.10,0.01,-0.50,-68.87,275.19,0.31,-0.62,1.12,4,3
1772476460.967277,2553711,-0.03,-0.04,0.12,-18.12,-74.94,94.19,3.06,3.69,1.62,-0.04,-0.08,-0.09,-0.56,-68.87,275.12,-0.13,0.25,1.56,3,3
1772476461.006272,2553751,-0.25,0.05,0.16,-18.56,-75.06,94.19,2.00,2.94,1.25,0.00,0.01,-0.08,-0.69,-68.87,275.12,1.19,0.31,0.44,4,3
1772476461.046349,2553790,-0.21,0.21,0.13,-19.06,-75.19,94.25,3.25,5.81,0.94,-0.01,-0.10,-0.11,-0.75,-68.87,275.19,2.31,-0.06,0.13,4,3
1772476461.087366,2553831,-0.17,0.18,0.11,-19.81,-75.44,94.31,8.56,7.25,1.31,-0.01,-0.08,-0.10,-0.81,-68.87,275.25,2.62,0.19,0.56,3,4
1772476461.127413,2553872,-0.13,0.19,0.16,-21.00,-75.62,94.50,12.50,8.44,2.81,0.01,0.00,-0.12,-0.88,-68.94,275.31,1.62,-0.37,0.69,4,4
1772476461.167867,2553912,-0.33,0.15,0.20,-22.50,-75.87,94.81,15.94,9.00,1.87,-0.01,0.01,-0.10,-1.06,-68.94,275.31,1.12,-0.62,0.88,4,4
1772476461.207134,2553951,-0.28,0.06,0.18,-23.94,-76.19,95.19,17.25,10.63,1.19,0.00,0.03,-0.10,-1.12,-68.87,275.31,1.06,-0.94,0.13,4,3
1772476461.247325,2553991,-0.10,-0.16,0.09,-25.44,-76.50,95.69,16.62,11.63,0.94,-0.01,0.01,-0.12,-1.12,-68.87,275.37,2.06,-1.12,-2.00,3,3
1772476461.288228,2554032,-0.08,-0.22,0.03,-26.69,-76.87,96.06,11.38,8.94,-0.37,0.00,-0.09,-0.12,-0.94,-68.81,275.56,1.12,-0.62,-2.37,3,3
1772476461.328677,2554072,0.07,-0.36,-0.09,-27.25,-77.25,96.44,5.31,8.50,-3.25,-0.04,-0.06,-0.04,-0.69,-68.81,275.62,-0.94,-0.37,-1.75,4,3
1772476461.369015,2554113,-0.05,-0.29,-0.02,-27.12,-77.56,96.75,1.62,4.31,-2.81,0.00,-0.08,-0.09,-0.50,-68.81,275.62,-2.00,-0.19,-0.88,4,3
1772476461.408363,2554152,-0.14,-0.19,0.05,-26.87,-77.81,96.87,0.13,3.94,-1.44,-0.03,-0.13,-0.07,-0.37,-68.81,275.62,-1.31,-0.75,-0.69,3,3
1772476461.448077,2554192,-0.16,-0.01,0.06,-27.06,-78.00,96.87,-0.56,5.37,0.06,-0.06,-0.12,-0.03,-0.31,-68.81,275.56,-0.88,-0.50,0.00,3,3
1772476461.488788,2554233,-0.13,0.11,0.04,-27.62,-78.12,96.81,0.19,3.87,1.94,-0.02,-0.05,-0.06,-0.31,-68.81,275.56,0.19,-0.31,0.06,2,3
1772476461.529179,2554273,-0.20,0.18,-0.03,-28.31,-78.19,96.75,1.25,3.75,1.06,-0.03,-0.07,-0.03,-0.25,-68.75,275.62,1.69,-0.94,-0.88,2,2
1772476461.569339,2554313,-0.22,0.20,0.03,-28.87,-78.31,96.75,2.44,5.37,-1.44,0.00,-0.12,-0.01,-0.31,-68.75,275.69,1.50,-0.88,-0.37,2,2
1772476461.608971,2554353,-0.06,0.09,-0.02,-29.19,-78.56,96.94,3.25,4.75,-2.62,-0.02,-0.11,-0.09,-0.31,-68.75,275.75,0.31,-0.44,0.25,2,2
1772476461.648778,2554392,-0.06,-0.08,-0.07,-29.19,-78.75,97.12,2.69,3.50,-3.25,-0.03,-0.13,-0.08,-0.31,-68.75,275.75,-0.37,-0.25,0.44,2,2
1772476461.689686,2554433,-0.06,-0.13,-0.07,-29.00,-78.87,97.31,0.75,2.19,-2.25,-0.01,-0.11,-0.07,-0.37,-68.75,275.69,-0.13,0.25,1.06,4,4
1772476461.729872,2554474,-0.04,-0.07,-0.11,-28.75,-79.00,97.37,-0.69,0.13,-1.62,-0.02,-0.11,-0.07,-0.50,-68.75,275.69,0.06,0.75,0.94,4,4
1772476461.770346,2554514,-0.01,-0.05,-0.08,-28.37,-79.00,97.44,-1.56,-1.81,-0.62,-0.03,-0.10,-0.09,-0.62,-68.75,275.62,-0.56,0.06,1.25,4,4
1772476461.809853,2554553,0.00,-0.02,-0.09,-28.06,-78.94,97.37,-2.00,-3.50,-0.37,-0.04,-0.14,-0.11,-0.69,-68.75,275.56,-0.44,-0.88,1.56,4,4
1772476461.849589,2554593,0.15,-0.15,-0.15,-27.44,-78.75,97.31,-3.00,-6.69,-0.06,-0.05,-0.05,-0.17,-0.88,-68.69,275.50,-0.31,-0.88,1.69,4,4
1772476461.890419,2554634,0.36,-0.24,-0.25,-26.44,-78.44,97.19,-7.31,-15.75,1.56,-0.08,-0.14,-0.02,-1.12,-68.69,275.44,0.81,-1.37,1.75,5,4
1772476461.930832,2554674,0.00,-0.30,-0.14,-24.62,-77.75,96.94,-12.06,-25.12,2.75,-0.01,-0.13,-0.12,-1.31,-68.56,275.31,-1.44,-2.06,3.25,4,5
1772476461.970894,2554715,-0.60,-0.18,0.24,-22.94,-76.87,96.44,-18.00,-17.37,2.69,0.06,-0.20,0.12,-1.56,-68.56,275.12,-1.31,-0.50,3.62,5,5
1772476462.010331,2554754,-0.37,0.03,0.25,-21.62,-76.37,95.81,-19.56,-10.25,1.12,0.01,-0.08,-0.03,-1.81,-68.56,275.06,-0.19,0.94,3.06,6,5
1772476462.050318,2554794,-0.32,0.27,0.24,-20.44,-76.00,95.19,-18.19,-8.56,-0.69,-0.09,-0.04,-0.19,-2.06,-68.62,274.87,-2.94,0.25,4.37,6,5
1772476462.091371,2554835,-0.18,0.20,0.24,-19.37,-75.69,94.75,-14.38,-7.81,-0.75,-0.11,-0.03,-0.13,-2.37,-68.56,274.56,-3.44,-1.25,5.00,4,3
1772476462.131554,2554875,-0.42,0.31,0.34,-18.62,-75.37,94.31,-10.63,-7.37,-0.13,0.01,-0.05,-0.19,-2.69,-68.50,274.31,-3.00,-2.44,4.81,4,3
1772476462.171660,2554915,-0.39,0.33,0.32,-18.19,-75.06,94.00,-5.94,-2.25,-0.81,0.00,-0.02,-0.12,-2.94,-68.37,274.12,-2.00,-2.87,2.87,3,3
1772476462.210883,2554955,-0.20,0.31,0.19,-18.12,-75.00,93.87,-2.69,1.06,-0.94,0.07,0.00,-0.12,-3.00,-68.37,274.12,0.62,-1.69,-0.62,4,4
1772476462.250716,2554994,-0.19,0.30,0.14,-18.25,-75.06,93.87,1.94,4.31,-1.69,0.01,-0.05,-0.09,-2.94,-68.31,274.19,2.75,-0.56,-2.25,4,4
1772476462.291715,2555035,-0.16,0.26,0.11,-18.62,-75.25,94.06,8.81,6.56,-3.37,-0.04,-0.06,-0.10,-2.81,-68.31,274.37,1.56,-1.06,-1.56,4,4
1772476462.331928,2555076,-0.47,0.34,0.23,-19.06,-75.56,94.44,15.00,9.69,-4.12,-0.07,-0.13,0.00,-2.69,-68.25,274.44,1.06,-0.88,-0.81,4,4
1772476462.372460,2555116,-0.42,0.36,0.29,-19.81,-76.00,95.12,22.94,14.88,-4.31,-0.07,-0.12,-0.04,-2.62,-68.25,274.56,2.94,-0.94,-2.25,5,5
1772476462.411666,2555155,-0.29,0.16,0.11,-21.25,-76.56,96.00,26.94,15.50,-3.94,-0.01,-0.20,-0.06,-2.56,-68.25,274.69,2.00,-1.00,0.31,3,5
1772476462.451587,2555195,-0.51,-0.03,0.03,-22.69,-77.25,96.94,27.25,19.00,-5.50,-0.04,-0.11,-0.04,-2.69,-68.19,274.69,-0.94,-1.44,2.25,3,6
1772476462.492684,2555236,-0.64,-0.55,-0.12,-23.62,-78.06,98.00,18.50,21.56,-12.56,-0.07,-0.11,-0.09,-2.94,-68.12,274.50,-1.62,-2.94,3.87,4,6
1772476462.532886,2555277,0.56,-0.79,-0.41,-24.31,-78.94,98.81,12.63,14.38,-3.69,-0.04,-0.16,-0.15,-3.12,-67.94,274.31,-1.62,-4.81,3.75,4,6
1772476462.573159,2555317,0.15,-0.75,-0.17,-24.81,-79.25,99.12,0.50,-4.31,-0.69,0.02,-0.14,-0.06,-3.37,-67.81,274.19,-0.19,-5.81,2.06,5,6
1772476462.612484,2555356,-0.18,-0.30,-0.02,-24.12,-79.00,99.06,-6.25,-7.19,0.94,0.06,-0.14,0.17,-3.37,-67.62,274.12,0.31,-2.25,0.75,5,6
1772476462.652246,2555396,-0.01,-0.16,-0.01,-23.69,-78.75,98.81,-4.94,-7.00,3.06,0.00,-0.14,-0.02,-3.37,-67.62,274.19,1.37,1.00,-0.50,5,7
1772476462.693224,2555437,-0.20,-0.10,-0.04,-23.69,-78.37,98.56,-3.81,-7.87,6.50,-0.05,-0.12,0.01,-3.37,-67.69,274.25,2.50,1.81,-1.19,5,7
1772476462.733863,2555477,-0.21,-0.12,-0.03,-24.19,-78.00,98.12,-5.44,-5.25,6.69,-0.06,-0.09,-0.02,-3.44,-67.75,274.37,1.50,1.94,-0.37,6,8
1772476462.773860,2555517,-0.30,0.01,0.12,-24.44,-77.75,97.75,-7.19,-3.81,3.87,0.03,-0.04,-0.06,-3.37,-67.87,274.37,-1.06,2.50,-0.06,5,8
1772476462.812957,2555557,-0.35,0.12,0.16,-24.44,-77.62,97.44,-6.50,-1.56,2.31,0.03,-0.06,-0.03,-3.37,-67.94,274.31,-1.50,1.69,0.06,5,7
1772476462.852697,2555597,-0.20,0.15,0.10,-24.44,-77.56,97.25,-3.37,0.50,0.25,0.00,-0.08,-0.16,-3.31,-68.00,274.31,-1.00,1.44,0.25,5,7
1772476462.893780,2555638,-0.14,0.08,0.13,-24.44,-77.62,97.19,-0.62,0.81,-0.13,-0.07,-0.06,-0.11,-3.31,-68.06,274.31,-0.13,1.19,0.37,5,7
1772476462.933951,2555678,-0.08,0.06,0.02,-24.50,-77.62,97.19,1.19,0.31,-0.37,-0.13,-0.04,-0.13,-3.31,-68.12,274.31,0.94,0.75,-0.50,4,7
1772476462.974244,2555718,-0.08,0.03,0.02,-24.56,-77.62,97.25,2.44,-0.75,-0.81,-0.04,-0.09,-0.18,-3.31,-68.19,274.37,0.94,0.37,-0.13,3,6
1772476463.013854,2555758,-0.13,-0.08,0.08,-24.37,-77.56,97.37,2.50,-1.69,-1.31,-0.02,-0.11,-0.15,-3.31,-68.19,274.37,0.44,0.25,-0.13,3,6
1772476463.053805,2555797,-0.23,-0.04,0.10,-24.12,-77.56,97.44,1.75,-1.06,-0.62,-0.07,-0.11,-0.11,-3.31,-68.19,274.37,1.12,0.19,-0.81,3,6
1772476463.094684,2555838,-0.29,-0.07,0.08,-24.06,-77.56,97.56,1.81,0.25,-1.12,-0.02,-0.12,-0.04,-3.37,-68.19,274.44,1.19,-0.13,-0.56,3,5
1772476463.134639,2555879,-0.28,-0.08,0.06,-24.00,-77.62,97.62,1.25,2.19,-1.06,0.01,-0.12,0.00,-3.31,-68.19,274.50,1.44,0.13,-1.12,1,5
1772476463.174967,2555919,-0.22,-0.09,0.00,-24.00,-77.69,97.75,1.62,3.44,-1.56,0.03,-0.14,0.03,-3.25,-68.25,274.62,2.62,1.25,-1.75,1,4
1772476463.214497,2555958,-0.15,-0.07,-0.07,-24.06,-77.87,97.87,2.12,4.25,-1.31,0.01,-0.14,-0.06,-3.25,-68.31,274.75,3.31,3.25,-2.00,2,4
1772476463.254395,2555998,-0.08,-0.08,-0.02,-24.25,-78.06,98.00,2.69,4.19,-1.37,-0.04,-0.14,-0.15,-3.12,-68.44,274.87,1.75,2.44,-1.44,1,5
1772476463.295433,2556039,-0.09,-0.09,-0.02,-24.31,-78.19,98.12,3.50,1.62,-0.81,-0.06,-0.14,-0.18,-3.12,-68.50,274.94,0.37,0.75,-0.50,1,5
1772476463.335414,2556079,-0.11,-0.11,0.04,-24.50,-78.25,98.25,3.06,0.69,0.44,-0.04,-0.13,-0.13,-3.06,-68.56,275.00,-0.06,0.00,0.00,2,5
1772476463.375512,2556119,-0.14,-0.06,0.05,-24.56,-78.25,98.37,2.31,0.37,0.56,-0.04,-0.08,-0.10,-3.00,-68.56,275.00,0.37,0.06,0.06,3,7
1772476463.415331,2556159,-0.24,-0.04,0.09,-24.62,-78.25,98.44,1.94,0.69,-0.06,-0.01,-0.13,-0.13,-3.00,-68.56,275.00,0.44,0.06,-0.06,3,6
1772476463.455179,2556199,-0.12,-0.03,0.01,-24.81,-78.31,98.50,1.37,1.75,-0.69,-0.09,-0.13,-0.16,-2.94,-68.56,275.00,0.25,0.62,0.19,3,7
1772476463.495922,2556240,-0.13,-0.06,0.02,-24.94,-78.37,98.50,1.25,0.13,0.06,-0.06,-0.14,-0.15,-2.87,-68.62,275.00,-0.31,0.25,0.62,3,7
1772476463.536394,2556280,-0.08,-0.08,0.03,-24.94,-78.37,98.56,0.31,-0.37,0.13,-0.03,-0.03,-0.13,-2.87,-68.69,275.00,-0.56,0.50,0.37,3,7
1772476463.576684,2556320,-0.15,-0.01,0.00,-24.87,-78.37,98.56,-0.50,-1.69,-0.62,-0.04,-0.08,-0.04,-2.81,-68.69,275.00,0.25,0.06,0.00,3,8
1772476463.616142,2556360,-0.11,-0.02,0.03,-24.56,-78.31,98.56,-0.62,-2.19,-0.81,-0.06,-0.07,-0.16,-2.81,-68.69,275.00,0.62,0.19,-0.88,4,8
1772476463.655843,2556399,-0.11,0.00,0.00,-24.31,-78.19,98.50,-1.94,-3.62,1.50,-0.05,-0.04,-0.11,-2.69,-68.69,275.12,1.44,-1.94,-1.37,4,8
1772476463.696794,2556440,0.00,0.24,-0.05,-23.87,-78.00,98.44,-4.19,-6.62,-3.94,-0.04,-0.14,-0.09,-2.69,-68.62,275.19,2.06,-0.62,0.62,5,7
1772476463.736911,2556481,-0.30,0.09,0.03,-22.19,-77.87,98.56,-3.81,-5.56,-11.00,0.01,-0.22,0.01,-2.75,-68.56,275.19,0.37,-2.06,1.56,5,7
1772476463.777239,2556521,-0.16,-0.19,0.05,-19.69,-77.87,98.94,-5.94,-4.56,-12.38,0.00,-0.20,-0.14,-2.87,-68.50,275.12,0.37,-1.00,2.31,4,5
1772476463.816782,2556560,0.06,-0.41,-0.09,-17.12,-77.81,99.12,-11.06,-6.81,-8.81,0.00,-0.13,-0.08,-2.94,-68.50,275.06,1.44,-0.50,1.87,4,6
1772476463.856620,2556600,-0.05,-0.30,-0.09,-14.75,-77.62,99.06,-13.06,-9.44,-6.50,-0.03,-0.17,-0.13,-3.12,-68.50,275.06,1.94,-0.25,1.06,5,6
1772476463.897353,2556641,-0.11,-0.13,-0.05,-12.88,-77.31,98.87,-14.00,-9.75,-2.31,0.00,-0.13,0.00,-3.19,-68.50,275.12,0.44,-0.31,1.19,4,5
1772476463.937884,2556681,-0.22,0.04,0.00,-11.75,-76.94,98.56,-11.94,-9.19,-0.37,-0.02,-0.12,0.00,-3.31,-68.50,275.06,-0.25,-0.37,1.31,4,5
1772476463.977856,2556722,-0.43,0.23,0.14,-11.13,-76.62,98.25,-6.75,-6.12,0.50,-0.03,-0.12,0.04,-3.37,-68.50,275.00,-1.06,0.00,1.06,3,4
1772476464.017333,2556761,-0.38,0.23,0.18,-11.06,-76.44,98.06,-2.06,-3.06,1.62,-0.02,-0.10,-0.04,-3.44,-68.50,274.94,-0.44,0.06,0.62,3,4
1772476464.056693,2556801,-0.29,0.13,0.19,-11.56,-76.37,97.94,2.37,0.19,3.00,0.01,-0.05,-0.14,-3.44,-68.56,274.94,0.62,1.25,-0.13,3,5
1772476464.097744,2556842,-0.26,0.13,0.19,-12.25,-76.37,97.94,5.62,2.94,1.81,0.04,-0.04,-0.05,-3.37,-68.62,275.00,1.31,1.37,-0.62,2,6
1772476464.138491,2556882,-0.45,0.17,0.21,-12.94,-76.50,98.06,9.25,6.25,0.75,-0.05,-0.05,-0.01,-3.31,-68.62,275.06,0.69,-0.31,-1.75,2,6
1772476464.178572,2556922,-0.29,0.09,0.19,-13.81,-76.81,98.37,13.38,9.81,1.62,-0.06,-0.11,-0.10,-3.25,-68.69,275.19,2.56,0.75,-0.81,1,6
1772476464.217769,2556962,-0.55,0.15,0.31,-15.25,-77.12,98.69,15.19,11.75,3.62,0.01,-0.06,-0.08,-3.25,-68.69,275.25,3.69,-1.37,-1.75,4,9
1772476464.257608,2557002,-0.21,0.09,0.19,-17.44,-77.56,99.00,18.25,15.56,4.56,-0.04,-0.06,-0.16,-3.12,-68.62,275.44,3.50,-1.25,-1.94,5,9
1772476464.298681,2557042,0.13,-0.21,-0.03,-19.62,-78.12,99.44,17.87,12.94,1.44,-0.05,-0.05,-0.23,-3.12,-68.69,275.62,3.12,1.81,-1.25,5,9
1772476464.339151,2557083,0.05,-0.48,-0.09,-21.00,-78.50,99.94,10.94,9.00,-1.62,0.00,-0.12,-0.17,-3.00,-68.69,275.75,0.44,-1.00,-1.06,6,10
1772476464.379637,2557123,-0.03,-0.36,-0.02,-21.00,-78.87,100.31,3.12,6.06,-1.56,-0.02,-0.08,-0.13,-2.81,-68.69,275.81,0.81,-0.75,-1.44,7,10
1772476464.418910,2557162,-0.17,-0.10,-0.10,-20.75,-79.12,100.44,-1.31,4.00,-1.44,-0.15,-0.16,-0.09,-2.69,-68.69,275.87,1.44,-1.12,-1.06,8,9
1772476464.458582,2557202,-0.16,-0.03,-0.01,-20.69,-79.25,100.44,-1.50,2.06,-0.88,0.05,-0.13,-0.19,-2.62,-68.69,275.94,0.37,3.37,0.75,9,9
