host_time_s,t_ms,ax1,ay1,az1,roll1,pitch1,yaw1,gx1,gy1,gz1,ax2,ay2,az2,roll2,pitch2,yaw2,gx2,gy2,gz2,emg1,emg2
1772644874.422361,980474,0.28,0.29,0.13,0.00,-74.87,89.94,0.00,-19.50,-6.81,0.02,0.07,0.08,157.87,-65.75,234.50,5.44,4.00,1.06,6,5
1772644874.422675,980514,-0.41,0.05,0.27,1.00,-74.12,90.31,3.44,-15.31,-9.31,0.00,-0.02,0.09,157.81,-65.62,234.75,1.00,3.81,-2.00,6,5
1772644874.422967,980553,-0.03,-0.40,-0.04,2.44,-73.75,91.00,5.19,-7.94,-14.19,0.00,-0.05,0.15,157.81,-65.44,234.87,-2.12,4.44,-1.00,6,4
1772644874.423249,980594,0.09,-0.51,-0.24,4.12,-73.44,91.62,0.94,-8.13,-13.63,0.08,0.17,0.15,158.00,-65.25,234.69,-6.06,4.62,-3.44,5,3
1772644874.423529,980634,0.53,-0.38,-0.30,5.69,-73.06,92.06,-3.25,-9.25,-12.00,0.09,-0.01,-0.06,158.06,-65.06,234.56,-3.37,3.62,-4.56,4,3
1772644874.423817,980675,0.31,-0.29,-0.08,7.12,-72.44,92.44,-6.44,-18.31,-10.56,0.13,0.00,-0.12,157.87,-64.87,234.62,0.44,4.25,-6.25,4,2
1772644874.424110,980716,0.31,-0.16,0.07,8.06,-71.62,92.50,-6.56,-20.00,-7.44,0.46,-0.16,0.07,157.37,-64.50,235.19,5.56,8.31,-12.38,3,2
1772644874.424400,980755,-0.05,-0.40,0.31,8.50,-70.81,92.62,-1.37,-21.25,-3.12,0.20,0.01,0.02,156.37,-64.06,236.00,-3.81,-0.62,-17.56,2,2
1772644874.424683,980795,-0.63,-0.41,0.35,8.13,-70.06,92.56,0.62,-15.63,4.94,-0.07,0.09,0.00,155.50,-63.88,236.06,-12.81,-0.88,-9.25,2,2
1772644874.424948,980836,-0.89,-0.23,0.28,7.50,-69.94,92.31,-2.31,4.25,3.94,0.07,0.12,-0.30,155.37,-63.75,235.75,-0.88,-0.81,-4.19,3,2
1772644874.425222,980876,0.75,-0.35,-0.17,8.75,-70.50,92.25,-19.62,16.37,-11.06,0.29,0.48,-0.10,155.12,-63.75,236.06,5.56,-1.44,0.31,5,2
1772644874.425495,980917,1.13,0.31,0.03,12.25,-70.37,92.00,-43.50,-11.13,-25.50,0.03,-0.03,0.00,154.81,-63.81,236.50,9.75,0.81,-0.56,5,2
1772644874.425773,980956,-0.38,1.03,0.56,16.31,-69.37,91.87,-37.69,-19.62,-26.75,0.46,-0.28,0.17,154.44,-63.69,237.19,10.13,2.37,-0.81,6,2
1772644874.426056,980996,-0.61,0.70,0.66,18.25,-68.81,92.06,-3.31,-4.94,-8.81,-0.07,-0.21,0.20,154.31,-63.63,237.37,-5.06,-0.44,-1.19,5,2
1772644874.426324,981037,-0.41,-0.04,0.58,17.44,-68.87,92.25,23.31,5.87,9.38,0.03,-0.02,0.15,154.44,-63.56,237.00,-7.44,1.56,-3.50,6,3
1772644874.426592,981078,0.35,-0.27,0.30,14.94,-69.37,92.44,30.31,5.81,20.12,0.03,-0.01,-0.14,154.25,-63.44,237.12,4.12,2.25,-4.19,6,3
1772644874.426935,981119,-0.01,-0.35,0.26,11.63,-69.69,92.31,26.94,2.87,21.31,0.09,0.12,-0.02,154.19,-63.31,237.25,-6.00,0.81,-2.19,7,3
1772644874.427230,981158,0.23,-0.45,0.22,9.38,-69.75,92.44,17.12,2.00,16.81,0.08,0.01,-0.01,154.06,-63.31,237.06,-3.25,-2.94,-1.87,7,3
1772644874.427504,981197,0.13,-0.34,0.27,7.94,-69.69,92.19,4.56,-0.75,15.13,0.29,-0.04,-0.12,153.94,-63.38,237.06,1.44,-4.56,0.06,7,4
1772644874.427775,981238,-0.03,0.02,0.24,6.50,-69.75,91.56,-3.81,0.81,14.63,0.33,0.01,0.08,153.62,-63.56,237.19,5.87,-4.31,1.44,5,4
1772644874.428044,981280,0.16,0.16,0.22,5.31,-69.94,90.94,-5.06,4.44,13.19,0.18,-0.29,0.05,153.25,-63.69,237.62,9.00,-3.06,1.69,4,4
1772644874.428322,981321,-0.07,0.00,0.31,4.12,-70.12,90.25,-6.37,5.56,13.50,0.06,-0.24,0.16,153.06,-63.75,237.81,-0.88,-2.31,2.12,5,4
1772644874.428601,981360,-0.54,-0.02,0.44,3.06,-70.50,89.56,-9.06,12.13,12.31,0.02,0.02,0.18,153.25,-63.88,237.44,-5.50,-1.69,1.37,4,4
1772644874.428878,981399,-0.73,-0.14,0.54,2.31,-71.31,88.75,-13.50,26.50,11.50,-0.03,0.12,0.12,153.37,-63.94,237.19,-3.87,-1.62,0.25,4,3
1772644874.429153,981442,-0.04,0.05,0.15,1.69,-72.62,87.87,-18.75,37.31,12.81,0.00,0.24,0.00,153.50,-64.06,236.94,-0.37,-2.25,2.69,4,3
1772644874.429414,981484,0.11,0.47,0.05,1.00,-74.12,86.87,-18.06,36.13,9.88,0.12,0.17,0.04,153.56,-64.19,237.00,5.44,-1.37,3.12,3,3
1772644874.429679,981526,0.43,0.57,-0.11,0.56,-75.50,86.12,-10.69,32.88,4.31,0.08,0.17,0.01,153.56,-64.31,237.06,2.06,-2.75,1.87,3,3
1772644874.429942,981565,0.28,0.18,-0.10,0.50,-76.87,85.87,-6.00,26.00,1.12,0.02,0.03,0.00,153.50,-64.44,237.12,3.94,-2.00,1.37,4,3
1772644874.430210,981604,0.16,0.16,-0.09,0.69,-77.62,85.75,-4.87,23.12,-0.75,0.02,0.04,0.09,153.50,-64.50,237.12,0.19,-1.94,1.94,3,3
1772644874.430482,981647,0.22,0.00,-0.13,1.12,-78.50,85.69,-3.12,22.69,-2.56,0.05,0.04,0.11,153.56,-64.56,236.94,-5.12,-0.88,-0.50,2,2
1772644874.430784,981687,0.18,0.06,-0.11,1.94,-79.56,85.81,-2.25,20.50,-2.19,0.08,0.13,0.09,153.69,-64.56,236.69,-5.00,-1.06,-1.56,2,2
1772644874.431057,981728,0.45,0.11,-0.25,2.44,-80.37,85.87,0.56,20.62,-1.25,0.17,0.12,-0.05,153.75,-64.62,236.44,-2.25,-1.50,-1.44,3,3
1772644874.431332,981767,0.42,0.21,-0.23,2.56,-81.06,86.06,3.56,15.81,-0.75,0.12,0.09,-0.03,153.69,-64.62,236.37,-1.44,-1.69,-1.12,3,3
1772644874.431603,981806,0.23,0.08,-0.16,2.37,-81.56,86.44,5.75,8.88,-0.69,0.01,0.00,-0.02,153.62,-64.69,236.25,-2.94,-1.81,-1.37,3,4
1772644874.431882,981848,0.26,0.02,-0.23,2.25,-81.81,86.56,6.62,10.25,0.56,0.17,0.04,0.09,153.56,-64.75,236.12,-0.19,-1.94,-0.69,3,4
1772644874.432148,981888,0.30,0.08,-0.22,1.62,-82.25,86.81,6.31,7.56,1.44,0.02,0.12,0.00,153.50,-64.81,236.12,0.13,-1.44,0.06,4,4
1772644874.432413,981929,0.07,0.09,-0.08,1.25,-82.50,87.06,6.81,5.31,-0.62,0.02,0.03,0.11,153.50,-64.81,236.12,0.56,0.25,-0.88,5,4
1772644874.432686,981968,0.14,-0.01,-0.04,1.31,-82.75,87.31,7.06,7.94,-0.75,0.02,0.00,0.10,153.31,-64.81,236.19,-0.31,-0.06,-2.00,5,4
1772644874.432958,982006,-0.07,0.00,0.05,1.06,-83.06,87.56,6.69,6.81,-0.19,0.04,0.01,0.18,153.25,-64.75,236.19,-2.00,0.94,-2.69,5,4
1772644874.433226,982048,-0.04,-0.08,0.17,0.06,-83.31,87.75,6.19,12.81,-0.37,0.07,0.08,0.30,153.12,-64.69,236.25,-1.87,2.25,-3.25,5,4
1772644874.433502,982089,-0.16,-0.12,0.39,0.13,-83.94,88.06,4.81,16.94,-1.44,-0.03,0.01,0.17,153.00,-64.56,236.31,-1.56,5.56,-4.50,5,4
1772644874.433824,982129,0.25,-0.15,0.11,0.19,-84.75,88.25,4.25,22.75,-1.19,0.23,0.05,-0.22,152.87,-64.25,236.44,-3.94,4.31,-6.87,4,3
1772644874.434106,982169,0.62,-0.07,-0.14,0.19,-85.56,88.44,3.37,20.87,0.44,0.30,0.01,-0.31,152.75,-64.00,236.44,-7.19,0.81,-5.56,4,3
1772644874.434383,982208,0.76,0.04,-0.33,0.06,-86.19,88.50,3.31,11.00,2.31,0.22,0.06,-0.13,152.69,-63.88,236.25,-6.06,-1.87,-5.19,3,3
1772644874.434653,982249,0.52,0.09,-0.22,0.00,-86.37,88.56,5.00,-0.50,2.50,0.08,0.15,-0.01,152.50,-63.94,236.06,-4.37,-4.94,-4.56,3,3
1772644874.434926,982290,0.28,-0.01,-0.17,-0.06,-86.19,88.69,5.37,-5.06,1.87,0.05,-0.03,0.02,152.12,-64.00,235.94,-1.75,-5.12,-1.87,3,2
1772644874.435193,982330,0.29,0.08,-0.21,-0.19,-85.94,88.81,5.50,-6.31,2.69,0.15,0.03,0.03,151.87,-64.12,235.87,-2.12,-2.50,-4.06,2,2
1772644874.435462,982369,0.25,0.04,-0.16,-0.25,-85.69,88.87,6.12,-9.31,1.50,-0.08,0.00,0.19,151.62,-64.19,235.81,-3.94,-3.31,-2.62,2,2
1772644874.435732,982408,0.10,0.05,-0.10,-0.37,-85.31,89.12,6.00,-10.00,1.56,-0.06,0.01,0.13,151.44,-64.25,235.69,-1.06,-3.06,-1.50,2,2
1772644874.435996,982450,0.16,0.11,-0.17,-0.44,-85.06,89.25,5.50,-9.00,1.50,-0.01,0.10,0.17,151.37,-64.31,235.62,-1.56,-1.50,-0.81,2,2
1772644874.463660,982490,0.20,0.00,-0.17,-0.50,-84.62,89.37,5.25,-10.25,0.88,-0.02,0.06,0.16,151.31,-64.37,235.56,0.50,-1.00,1.44,2,2
1772644874.503864,982531,0.19,0.02,-0.14,-0.56,-84.25,89.56,4.19,-11.00,1.31,-0.03,-0.01,0.12,151.37,-64.44,235.50,0.81,0.44,1.25,4,4
1772644874.542882,982570,0.04,-0.01,-0.06,-0.62,-83.81,89.62,3.00,-9.56,1.06,0.03,-0.02,0.15,151.44,-64.44,235.56,1.00,1.50,1.00,5,4
1772644874.581665,982608,0.27,-0.08,-0.08,-0.69,-83.56,89.81,1.56,-6.75,0.56,0.07,0.00,0.09,151.50,-64.44,235.56,0.81,1.81,0.25,5,4
1772644874.623770,982650,0.35,-0.06,-0.10,-0.69,-83.31,89.81,-0.62,-8.88,0.88,0.01,-0.02,0.02,151.50,-64.31,235.69,1.44,2.81,-0.25,5,5
1772644874.664280,982691,0.15,-0.02,-0.02,-6.00,-82.81,89.69,-1.81,-11.19,1.56,0.00,-0.01,0.03,151.56,-64.19,235.81,-0.25,3.37,-0.69,5,5
1772644874.704660,982731,0.03,0.08,0.07,-6.25,-82.37,89.56,-2.00,-10.19,2.50,0.06,0.06,-0.06,151.62,-64.06,235.87,0.44,4.06,-0.62,6,6
1772644874.743606,982770,0.11,0.07,0.20,-6.44,-82.00,89.44,-1.06,-9.69,1.25,0.15,0.00,0.00,151.75,-63.94,235.94,0.50,3.12,-0.88,6,6
1772644874.782580,982809,0.06,0.03,0.17,-6.37,-81.62,89.56,-0.62,-9.19,0.69,0.12,0.04,-0.04,151.81,-63.81,236.00,0.69,2.75,-0.69,7,6
1772644874.824246,982851,0.05,0.00,0.19,-6.25,-81.37,89.56,-0.31,-7.31,0.19,0.16,0.06,0.02,151.87,-63.75,236.06,0.69,1.94,-0.50,7,6
1772644874.864990,982892,0.05,-0.01,0.19,-6.00,-81.00,89.50,-0.25,-5.19,0.13,0.05,0.03,-0.06,151.87,-63.69,236.19,1.56,1.12,0.37,7,6
1772644874.905236,982932,0.17,0.00,0.09,-5.87,-80.81,89.56,-0.19,-4.19,0.13,0.14,-0.02,-0.05,151.94,-63.63,236.25,0.06,0.37,0.19,5,4
1772644874.945451,982972,0.18,0.01,0.08,-5.81,-80.62,89.50,-0.06,-5.12,0.25,0.14,0.01,-0.05,151.94,-63.63,236.25,0.44,0.50,0.13,4,3
1772644874.985503,983012,0.16,-0.04,0.07,-5.62,-80.44,89.56,0.62,-6.12,0.31,0.11,0.04,0.01,151.94,-63.63,236.25,0.37,-0.31,0.19,4,3
1772644875.025806,983053,0.08,-0.06,0.08,-5.62,-80.19,89.56,0.19,-6.19,1.44,0.09,0.00,0.01,151.94,-63.63,236.25,0.88,-0.31,0.00,4,3
1772644875.065713,983093,0.00,-0.01,0.09,-5.94,-79.94,89.50,0.06,-4.56,2.37,0.05,0.02,0.00,151.87,-63.63,236.31,1.75,-0.13,0.13,4,2
1772644875.105861,983133,0.07,0.01,0.07,-6.44,-79.81,89.37,0.31,-3.06,3.25,0.02,0.05,0.02,151.81,-63.63,236.37,0.44,-0.56,0.00,3,2
1772644875.146304,983173,0.08,0.03,0.06,-7.12,-79.69,89.25,0.94,-2.50,2.94,0.08,0.06,0.06,151.81,-63.63,236.37,-0.44,-0.31,-0.50,3,1
1772644875.186421,983213,0.05,0.02,0.02,-7.56,-79.56,89.19,1.12,-1.62,1.94,0.09,0.05,0.06,151.81,-63.63,236.37,-0.69,-0.56,-0.94,3,1
1772644875.226660,983253,0.14,0.04,-0.01,-7.94,-79.50,89.12,1.31,-0.75,1.62,0.08,0.05,0.05,151.75,-63.63,236.37,0.06,-0.62,-0.88,2,1
1772644875.266636,983293,0.17,0.04,-0.05,-8.31,-79.44,89.12,1.50,-1.19,1.44,0.07,0.02,0.04,151.69,-63.63,236.37,0.06,-0.44,-0.81,2,1
1772644875.306909,983333,0.21,0.02,-0.09,-8.69,-79.37,89.12,1.56,-2.44,2.00,0.06,0.06,0.02,151.62,-63.63,236.44,-0.06,-0.25,-0.69,2,1
1772644875.347041,983374,0.13,0.06,-0.02,-9.06,-79.25,89.19,1.25,-3.69,1.81,0.08,0.00,0.05,151.56,-63.63,236.50,0.81,-0.19,-0.25,3,3
1772644875.386836,983414,0.10,0.08,0.01,-9.31,-79.12,89.31,1.37,-3.25,1.31,0.11,0.00,0.06,151.56,-63.63,236.50,0.50,-0.13,-0.50,3,3
1772644875.427185,983454,0.09,0.03,0.02,-9.44,-78.94,89.31,1.06,-3.19,1.06,0.01,0.00,0.00,151.56,-63.63,236.50,0.37,0.69,-0.62,3,3
1772644875.467416,983494,0.09,0.00,0.00,-9.56,-78.81,89.19,0.56,-3.19,0.75,0.11,0.00,0.04,151.56,-63.56,236.50,-0.44,0.69,-0.37,3,3
1772644875.507669,983534,0.06,0.06,0.00,-9.69,-78.75,89.12,-0.25,-2.50,1.44,0.03,0.07,-0.02,151.56,-63.56,236.50,1.50,0.19,0.06,4,4
1772644875.546644,983573,0.11,0.12,0.03,-9.75,-78.62,89.06,0.06,-1.81,0.25,0.10,-0.03,0.04,151.62,-63.56,236.56,0.13,1.19,-0.37,5,5
1772644875.587171,983614,0.13,0.05,0.05,-9.56,-78.56,89.12,0.37,-2.37,-0.81,0.12,-0.01,0.01,151.62,-63.50,236.56,-0.50,-0.19,-0.50,4,4
1772644875.627868,983654,0.12,0.02,0.02,-9.50,-78.44,89.12,0.62,-2.00,-0.13,0.13,-0.04,0.00,151.56,-63.50,236.62,-0.56,0.44,-0.81,4,5
1772644875.668034,983695,0.04,-0.01,0.00,-9.50,-78.37,89.12,0.62,-1.69,0.44,0.05,0.00,0.01,151.56,-63.50,236.56,-0.25,-0.31,-0.06,4,5
1772644875.708476,983735,0.14,0.01,-0.05,-9.56,-78.31,89.12,0.00,-1.44,0.75,0.10,-0.01,0.03,151.56,-63.50,236.56,-0.19,0.44,-0.44,4,5
1772644875.748812,983775,0.06,0.04,-0.01,-9.75,-78.25,89.06,0.00,-1.62,1.25,0.08,-0.04,-0.08,151.56,-63.50,236.56,-0.56,-0.06,-0.69,3,3
1772644875.787821,983814,-0.10,0.09,0.12,-10.00,-78.19,89.00,0.56,-1.19,1.87,0.16,-0.04,0.00,151.56,-63.50,236.50,-1.94,-2.56,-0.31,3,3
1772644875.828110,983855,0.00,0.12,0.26,-10.63,-78.19,88.87,1.25,0.88,2.81,0.00,-0.06,-0.08,151.50,-63.63,236.37,-1.50,-4.50,0.00,3,2
1772644875.868262,983895,-0.09,0.03,0.33,-11.25,-78.19,88.81,1.50,3.31,2.94,0.16,0.10,0.00,151.44,-63.75,236.25,0.31,-3.12,1.25,2,2
1772644875.908420,983935,0.04,0.00,0.12,-11.94,-78.37,88.81,1.69,8.19,1.31,0.10,0.10,0.12,151.37,-63.88,236.19,0.19,-2.69,2.06,2,2
1772644875.947903,983975,-0.11,0.00,0.10,-12.50,-78.75,88.81,0.69,12.44,-0.44,0.08,0.12,0.17,151.44,-64.00,236.06,-0.19,-2.25,1.87,1,1
1772644875.988452,984015,0.50,-0.03,-0.18,-13.00,-79.31,88.81,-0.06,12.81,-0.56,0.16,-0.01,0.01,151.44,-64.12,236.00,0.75,-0.88,0.50,2,1
1772644876.029497,984056,-0.37,-0.05,0.10,-13.13,-79.69,88.81,-1.75,10.88,-2.25,0.04,0.03,0.02,151.44,-64.12,235.94,-2.37,-0.56,-0.06,2,1
1772644876.070119,984096,0.24,-0.16,-0.14,-13.19,-80.31,88.81,-2.87,17.37,-3.56,-0.03,0.05,0.07,151.50,-64.12,235.81,-1.44,-0.81,-0.69,2,1
1772644876.110479,984137,-0.48,-0.16,0.37,-13.06,-80.94,88.81,-6.37,17.12,-3.50,0.04,0.03,0.14,151.44,-64.12,235.81,-1.00,0.19,-1.37,2,1
1772644876.151002,984177,-0.66,-0.11,0.50,-13.13,-81.94,88.69,-10.25,30.75,-4.94,-0.07,0.04,0.15,151.50,-64.06,235.81,-0.06,1.25,-0.50,3,2
1772644876.190111,984216,-0.13,-0.05,0.30,-1.50,-83.50,88.44,-13.88,46.25,-6.81,-0.04,-0.01,0.11,151.50,-64.06,235.81,-0.56,1.94,-0.69,5,4
1772644876.230236,984257,0.30,0.05,0.24,-1.12,-85.37,88.12,-16.62,47.50,-6.81,0.16,-0.14,-0.02,151.56,-63.94,235.81,-2.31,2.12,-0.19,5,4
1772644876.270852,984297,0.27,0.28,0.22,-0.88,-87.19,87.75,-15.69,45.38,-6.44,0.05,-0.19,0.02,151.75,-63.88,235.62,-7.19,1.50,-3.06,5,4
1772644876.311275,984338,0.42,0.09,-0.12,-0.56,-88.81,87.56,-12.44,42.63,-7.69,0.08,0.11,0.10,151.69,-63.75,235.44,-8.00,3.31,-11.94,6,5
1772644876.350265,984377,0.39,0.13,0.01,-179.62,-89.25,87.25,-10.81,42.94,-6.06,0.15,0.08,-0.18,151.31,-63.38,235.56,-3.69,2.31,-5.81,7,5
1772644876.389638,984416,0.61,0.20,-0.03,-179.87,-87.62,87.06,-9.56,42.13,-8.25,0.23,0.00,-0.08,151.31,-63.31,235.50,-5.56,0.81,-1.87,8,6
1772644876.430331,984457,0.17,0.04,0.10,179.69,-86.19,87.12,-8.88,34.75,-10.69,0.24,-0.11,0.15,151.31,-63.19,235.31,-4.56,1.75,-6.12,7,5
1772644876.470738,984497,0.42,0.11,-0.09,179.31,-84.81,87.19,-8.63,35.44,-9.00,0.09,0.05,0.12,151.25,-63.00,235.25,-3.06,1.25,-2.31,7,6
1772644876.511337,984538,0.50,-0.14,-0.04,179.00,-83.56,87.25,-8.06,26.87,-8.44,0.03,0.06,0.00,151.25,-62.94,235.19,-1.62,-2.87,2.06,7,6
1772644876.550248,984577,0.24,-0.06,0.15,170.62,-82.62,87.12,-10.75,24.25,-5.87,0.25,0.00,0.02,151.44,-63.06,235.00,0.44,1.19,3.12,6,5
1772644876.589533,984616,0.52,0.12,-0.07,170.87,-81.69,86.87,-11.88,22.56,-4.06,0.12,0.11,0.00,151.69,-63.13,234.87,0.50,-0.50,3.62,4,3
1772644876.630878,984658,0.30,0.16,0.01,170.62,-80.87,86.56,-14.38,17.25,-7.94,0.08,0.03,0.00,151.94,-63.31,234.62,-1.56,-3.87,6.62,4,3
1772644876.671226,984698,0.24,0.27,0.04,169.56,-80.19,86.31,-13.25,19.19,-11.94,0.06,0.22,0.06,152.37,-63.56,234.19,-1.12,-2.44,4.94,3,3
1772644876.711917,984739,0.48,0.34,0.04,168.31,-79.25,86.31,-8.06,23.56,-14.63,0.25,0.24,-0.18,152.62,-63.69,233.87,-8.06,-5.94,2.25,3,2
1772644876.752053,984779,0.43,-0.01,-0.18,166.31,-78.25,86.81,0.50,21.75,-16.75,-0.63,0.38,0.13,153.00,-63.94,233.06,-8.06,1.69,-1.94,2,2
1772644876.791178,984818,0.28,-0.32,-0.26,164.69,-77.37,87.56,5.62,18.94,-10.81,-0.04,0.75,0.26,153.56,-63.75,232.56,-24.19,3.94,1.56,1,1
1772644876.831803,984859,0.32,-0.62,-0.40,164.25,-76.62,88.31,10.94,18.19,-2.75,-0.50,0.09,0.12,154.62,-64.06,231.00,-15.81,-22.87,16.12,1,1
1772644876.872248,984899,0.81,-0.88,-0.57,165.00,-76.00,88.81,9.56,18.25,6.75,0.08,-0.44,0.11,155.50,-64.87,229.62,-0.94,2.87,4.06,1,1
1772644876.912804,984940,1.06,-0.67,-0.56,167.00,-75.56,88.81,2.31,7.87,13.38,0.28,-0.51,0.00,155.69,-64.94,229.62,1.69,-7.19,2.62,1,1
1772644876.953224,984980,0.90,-0.38,-0.21,169.25,-75.69,88.06,-7.62,-3.00,14.19,0.28,-0.26,0.17,155.75,-65.12,229.37,-12.44,1.50,0.37,4,4
1772644876.992459,985019,0.61,-0.03,-0.07,171.50,-76.00,86.94,-15.00,-6.87,11.81,0.36,-0.15,0.09,156.44,-65.00,228.56,-12.50,3.69,-4.00,5,6
1772644877.032815,985060,0.66,0.14,-0.09,173.87,-76.31,85.69,-15.25,-7.00,13.31,0.26,-0.06,0.33,156.44,-64.75,228.37,-4.87,5.56,-3.12,5,6
1772644877.073615,985100,0.96,-0.73,-0.50,178.37,-76.94,84.31,-0.37,-21.56,37.56,0.43,-0.28,0.15,156.69,-64.69,228.00,-1.94,-4.81,6.37,6,6
1772644877.113851,985141,0.51,-0.59,-0.12,-172.19,-78.12,82.62,6.62,-35.06,60.38,-0.35,0.04,0.14,157.25,-65.00,227.69,1.81,-6.62,19.00,7,6
1772644877.154074,985181,-0.46,0.32,0.23,-158.69,-78.69,80.50,0.50,-27.56,66.19,-0.09,0.52,-0.22,158.50,-65.37,227.19,8.50,3.69,10.13,8,7
1772644877.193204,985220,-0.26,1.45,0.41,-148.37,-78.19,78.31,-12.00,-1.87,40.56,-0.09,0.36,0.00,158.56,-65.25,227.62,10.38,7.25,-1.62,9,7
1772644877.233703,985260,0.35,1.07,0.18,-146.25,-77.62,77.00,-15.69,10.81,0.00,0.88,-0.49,-0.25,158.12,-65.06,228.19,-0.81,-0.62,-8.19,9,7
1772644877.274293,985301,0.21,0.35,0.25,-149.37,-77.75,77.12,-14.56,8.81,-26.25,0.16,-0.04,-0.15,157.44,-64.87,228.25,-8.63,3.19,-13.00,9,7
1772644877.314851,985342,0.29,0.23,0.19,-154.31,-78.00,77.44,-18.87,9.81,-31.81,0.08,-0.10,-0.13,156.75,-64.56,228.37,-5.69,0.19,-8.69,9,8
1772644877.354960,985381,0.52,0.30,0.07,-159.81,-78.06,77.75,-19.56,10.81,-32.31,0.34,-0.24,-0.07,156.50,-64.50,228.37,-3.87,-1.44,-5.87,7,5
1772644877.394107,985421,0.64,0.16,-0.04,-164.44,-78.19,78.00,-15.13,3.94,-27.31,0.08,-0.23,-0.10,156.19,-64.37,228.37,-4.12,-1.12,-3.31,6,3
1772644877.434626,985461,0.64,0.22,-0.11,-168.06,-78.37,78.31,-10.19,-3.50,-21.31,0.27,-0.26,0.03,155.94,-64.31,228.50,-1.94,-0.56,-3.69,6,3
1772644877.474992,985502,0.32,0.20,0.00,-170.62,-78.69,78.62,-2.69,-7.81,-15.50,0.07,-0.04,0.05,155.50,-64.25,228.56,-3.69,-5.75,-4.06,5,3
1772644877.514845,985542,0.23,0.14,0.06,-172.69,-79.12,79.12,2.12,-9.56,-9.88,0.12,0.13,0.10,155.31,-64.50,228.31,-6.06,-8.19,2.12,4,3
1772644877.554052,985581,0.18,0.16,0.02,-174.25,-79.50,79.62,4.75,-7.87,-8.00,-0.03,0.35,0.13,155.37,-64.75,227.94,2.25,-2.94,1.81,3,3
1772644877.593313,985620,0.29,0.22,-0.17,-175.56,-79.81,80.12,7.62,-8.06,-6.50,-0.27,1.16,0.31,155.31,-64.81,228.12,5.69,1.69,1.69,2,2
1772644877.634411,985661,0.54,0.51,-0.45,-177.06,-79.94,80.94,19.12,-7.87,-10.31,-0.05,1.17,0.39,155.37,-64.62,228.56,9.63,7.50,5.25,3,3
1772644877.675067,985702,1.16,0.53,-0.42,179.56,-80.31,82.75,44.81,-15.06,-10.38,0.06,-1.06,-0.17,155.37,-64.81,228.87,3.44,-9.44,4.50,3,2
1772644877.715279,985742,0.91,0.41,0.02,176.06,-81.50,85.56,69.44,-42.56,1.62,0.32,-0.69,-0.53,155.12,-64.81,228.75,-15.94,4.19,-12.44,4,3
1772644877.755575,985782,0.39,-0.33,0.61,179.31,-83.50,88.69,82.00,-53.06,11.69,0.63,-0.19,-0.16,154.25,-64.62,228.75,-7.31,-10.00,-18.19,6,4
1772644877.794757,985821,-0.68,-1.54,0.82,179.75,-85.56,91.00,60.38,-47.31,19.75,0.22,-0.09,-0.01,153.25,-64.87,228.50,-10.13,-19.31,0.25,6,5
1772644877.835576,985862,-0.60,-1.08,0.68,-179.69,-86.69,91.69,14.94,-19.75,10.50,-0.10,0.09,0.16,153.06,-65.62,227.81,7.31,-14.06,15.06,7,5
1772644877.876041,985903,0.03,-0.22,0.34,-179.62,-86.94,91.37,-14.81,-1.12,-2.12,0.11,0.07,0.27,153.50,-66.06,227.87,19.87,9.56,9.50,7,5
1772644877.916406,985943,0.03,0.59,0.18,-179.81,-86.87,90.75,-21.69,3.50,-9.94,-0.26,0.10,0.13,154.06,-65.87,228.69,9.81,5.25,10.81,8,6
1772644877.956596,985984,0.03,0.56,0.02,179.56,-86.62,90.62,-11.13,9.06,-16.00,0.34,0.07,-0.01,154.56,-65.87,228.69,5.37,4.50,4.94,9,6
1772644877.996085,986023,0.17,-0.06,-0.10,178.94,-86.12,91.12,0.69,10.31,-15.94,-0.05,-0.11,0.05,154.62,-65.75,229.00,6.56,3.31,-0.19,8,6
1772644878.036239,986063,0.10,-0.70,-0.03,178.44,-85.56,91.81,4.37,9.69,-11.44,0.22,0.01,0.09,154.62,-65.75,229.19,-1.19,-4.37,2.62,8,6
1772644878.077048,986104,0.21,-0.76,-0.04,178.06,-85.06,92.25,-1.62,10.88,-10.00,-0.08,0.09,0.12,154.62,-65.94,229.00,-0.25,-4.75,1.75,8,6
1772644878.117504,986144,-0.10,-0.40,-0.05,177.56,-84.44,92.37,-10.13,12.38,-9.31,0.01,0.24,0.19,154.75,-66.19,228.75,-0.75,-2.06,2.44,7,6
1772644878.157616,986184,0.34,0.23,-0.23,177.25,-83.69,92.31,-12.63,20.12,-10.06,-0.06,0.39,0.01,155.00,-66.31,228.62,1.94,-1.19,2.37,6,4
1772644878.196840,986224,1.12,0.63,-0.64,153.94,-82.81,92.25,-3.81,16.62,-13.06,0.17,0.14,-0.06,155.12,-66.44,228.50,0.62,-4.00,0.56,5,4
1772644878.237253,986264,1.34,-0.33,-0.68,150.56,-82.37,93.00,6.00,-3.81,-14.75,0.21,-0.17,-0.11,154.94,-66.56,228.56,-1.62,-2.75,-3.06,4,5
1772644878.277962,986304,0.80,-0.66,-0.22,144.69,-82.75,93.62,3.69,-25.37,-9.06,0.24,-0.20,-0.03,154.62,-66.69,228.44,-5.12,-8.31,-2.94,4,5
1772644878.318139,986345,0.24,-0.70,0.12,175.56,-83.44,93.81,-0.94,-26.44,-4.12,0.17,-0.13,-0.02,154.06,-66.87,228.31,0.37,-3.50,-3.62,3,4
1772644878.358419,986385,0.00,-0.49,0.31,175.56,-84.06,93.50,-8.69,-24.25,1.06,0.09,-0.17,0.14,153.50,-66.75,228.81,11.19,5.94,-5.81,2,3
1772644878.397487,986424,0.32,0.20,-0.04,175.81,-84.44,92.81,-1.56,20.25,11.50,-0.06,-0.11,0.15,152.81,-66.44,229.75,14.06,2.50,-0.31,3,4
1772644878.437768,986465,-0.01,0.22,0.44,176.31,-84.81,92.00,-14.13,-19.06,11.44,0.46,-0.38,0.27,152.62,-66.56,230.25,9.38,-3.19,10.63,3,3
1772644878.478366,986505,-0.16,0.26,0.36,176.81,-85.56,91.12,-15.13,-10.81,10.63,-0.26,-0.32,0.00,153.12,-66.81,230.37,6.87,1.37,4.19,4,5
1772644878.518761,986546,0.29,0.19,0.11,177.25,-85.94,90.19,-8.81,-1.12,11.00,0.09,0.27,0.03,152.81,-66.75,230.69,0.06,-0.56,-2.12,6,6
1772644878.559569,986586,-0.32,0.16,0.34,177.62,-86.25,89.44,-6.44,5.81,9.38,0.24,0.08,-0.12,153.31,-66.81,230.25,-2.00,1.12,4.37,6,6
1772644878.603790,986625,0.05,0.14,0.12,177.87,-86.37,88.87,-11.94,-18.25,3.94,0.16,-0.14,-0.20,153.25,-66.87,230.44,9.81,-0.75,1.81,6,6
1772644878.638782,986665,0.66,-0.13,-0.19,178.12,-86.62,88.31,-8.56,-1.44,6.00,0.19,-0.04,-0.17,153.12,-66.94,230.75,3.06,-2.06,3.56,6,6
1772644878.678454,986705,0.46,0.02,-0.16,178.44,-86.81,87.75,-6.31,5.94,8.00,0.06,0.44,-0.21,153.19,-67.12,230.75,10.38,-2.87,6.25,6,6
1772644878.719017,986746,0.22,-0.13,-0.10,178.56,-87.00,87.19,-11.00,-10.19,1.19,-0.12,0.15,-0.10,153.25,-67.31,231.25,20.06,0.19,11.69,6,6
1772644878.757941,986785,0.19,-0.16,-0.01,178.62,-87.12,86.94,-8.38,2.19,1.62,0.06,-0.08,0.09,153.62,-67.50,231.69,14.38,1.00,10.81,7,7
1772644878.797127,986824,0.07,-0.06,0.09,178.69,-87.12,86.50,-7.37,-0.25,2.19,0.04,0.05,0.10,154.06,-67.62,232.06,13.31,1.00,11.31,7,7
1772644878.838127,986865,0.24,-0.10,0.07,178.81,-86.94,86.25,-4.00,8.00,2.75,0.11,0.20,0.19,154.50,-67.87,232.31,10.19,-0.31,9.44,7,7
1772644878.878534,986905,0.01,-0.03,0.14,178.87,-86.87,85.94,-6.81,3.31,0.25,0.02,0.03,-0.05,154.81,-67.87,232.62,14.50,4.31,3.62,6,6
1772644878.918742,986946,0.28,-0.13,0.04,178.87,-86.69,85.56,-9.81,7.00,-0.50,0.17,0.00,-0.05,154.69,-67.81,233.25,10.75,1.87,2.81,4,4
1772644878.957649,986985,0.26,-0.16,0.03,178.87,-86.44,85.19,-9.38,6.00,1.50,0.07,0.06,0.06,154.69,-67.81,233.56,2.87,0.19,3.31,4,4
1772644878.996660,987024,0.34,-0.20,0.01,179.00,-86.19,84.62,-8.81,9.44,4.12,0.14,0.04,-0.02,154.94,-67.94,233.56,4.06,-2.56,7.50,4,5
1772644879.038465,987066,0.37,0.05,0.01,179.19,-86.06,84.19,-10.44,6.12,6.56,0.02,0.20,-0.09,155.50,-68.25,233.44,9.13,-1.12,9.69,4,5
1772644879.079117,987106,0.40,0.03,-0.04,179.50,-85.81,83.50,-9.69,6.37,6.56,0.08,0.03,-0.12,156.19,-68.37,233.44,9.63,1.69,13.81,4,5
1772644879.119564,987147,0.41,0.31,-0.02,179.81,-85.69,82.81,-9.19,4.12,5.00,0.05,0.08,-0.19,157.19,-68.56,233.31,7.94,-0.62,12.75,5,5
1772644879.158671,987186,0.43,0.19,-0.07,-179.94,-85.56,82.37,-5.56,1.31,3.69,0.24,-0.09,0.00,158.12,-68.69,233.44,18.75,2.69,15.31,5,5
1772644879.198161,987225,0.65,0.40,-0.10,-179.69,-85.56,81.75,0.06,-4.44,4.31,0.16,-0.29,-0.50,158.75,-68.81,233.69,3.81,-2.06,13.13,5,5
1772644879.239566,987266,0.64,0.39,-0.20,-179.31,-85.56,81.75,11.56,-2.69,6.25,0.39,-0.15,0.14,160.12,-69.37,233.31,13.69,-7.56,16.31,5,4
1772644879.279868,987307,0.60,0.54,-0.12,-178.87,-85.81,81.81,16.69,-21.19,8.44,0.46,0.17,0.10,160.50,-69.75,233.44,9.31,-7.62,8.88,5,4
1772644879.320184,987347,0.15,0.46,0.03,-178.50,-86.62,82.25,21.00,-25.19,7.37,0.16,0.16,0.09,161.31,-70.31,233.12,6.37,-13.69,18.56,4,5
1772644879.360138,987387,-0.53,0.12,0.30,-178.31,-87.37,83.00,20.87,-26.94,5.44,0.24,0.39,0.24,162.25,-70.94,232.81,3.50,-7.75,5.81,4,5
1772644879.399399,987426,-0.27,-0.03,0.32,-178.19,-87.75,83.62,18.19,-10.44,1.94,0.14,0.43,0.22,162.31,-71.19,232.81,3.25,-0.19,1.37,4,5
1772644879.440467,987467,0.09,-0.34,0.18,-178.31,-87.94,84.31,13.50,-4.37,-6.19,-0.10,0.10,-0.26,162.69,-71.12,232.75,-6.75,-0.44,9.19,4,4
1772644879.480455,987507,0.21,-0.56,-0.02,-178.75,-88.37,85.19,10.25,-5.00,-11.13,0.11,0.51,0.29,164.00,-71.44,232.00,8.31,-2.94,1.62,4,4
1772644879.520655,987548,0.08,-0.59,0.06,-179.19,-88.81,86.06,10.06,-5.12,-9.25,0.14,0.00,-0.20,163.44,-71.37,232.50,6.12,2.81,0.00,4,3
1772644879.559842,987587,0.07,-0.40,0.03,-179.50,-89.00,86.69,8.63,0.19,-0.75,0.29,-0.02,0.24,163.12,-71.37,232.94,6.75,-2.31,-0.13,3,3
1772644879.598938,987626,0.34,-0.37,-0.04,-179.56,-89.00,87.06,6.31,-0.37,2.31,0.23,0.01,-0.07,162.81,-71.37,233.31,6.87,1.62,-1.87,3,3
1772644879.640815,987668,0.52,-0.16,0.01,-179.56,-89.06,87.12,2.62,-5.25,1.12,0.30,-0.11,-0.14,162.19,-71.31,233.75,3.19,-0.44,-2.87,3,3
1772644879.681119,987708,0.24,-0.20,0.17,-179.56,-89.37,87.25,-0.44,-9.06,0.00,0.20,0.01,-0.10,161.62,-71.25,234.12,2.12,-0.94,-4.50,2,3
1772644879.721889,987748,0.13,-0.08,0.19,-179.56,-89.56,86.94,-2.81,-5.94,-1.00,0.01,0.04,-0.12,161.25,-71.25,234.19,-4.37,-1.62,-3.87,3,3
1772644879.760817,987787,0.09,-0.22,0.18,-0.25,-89.69,86.94,-1.94,-2.69,-0.94,0.33,0.16,0.05,160.75,-71.19,234.25,-2.00,-0.06,-6.81,3,3
1772644879.799743,987826,0.14,-0.01,0.15,-0.31,-89.62,86.87,-1.25,-1.00,3.00,0.13,0.24,-0.05,160.50,-71.19,234.19,-2.75,-2.37,-2.94,3,2
1772644879.841093,987868,0.20,0.04,0.15,-0.44,-89.50,86.75,1.62,0.31,4.12,0.14,0.25,0.05,160.19,-71.19,234.31,3.56,-0.81,-2.25,3,3
1772644879.881864,987909,0.12,0.11,0.09,-0.62,-89.25,86.62,3.12,-0.44,4.50,0.18,0.05,-0.05,160.06,-71.25,234.37,2.50,-3.19,0.81,4,3
1772644879.921756,987949,0.02,0.01,0.03,-0.81,-89.12,86.62,3.81,0.81,2.81,0.09,0.14,0.18,159.69,-71.31,234.62,5.56,-0.69,-2.69,3,2
1772644879.961113,987988,0.07,-0.07,0.00,-0.81,-89.12,86.69,2.19,3.19,0.13,0.10,-0.09,0.09,159.19,-71.25,234.87,-0.31,0.06,-4.44,3,2
1772644879.999907,988027,0.00,-0.19,0.02,-179.12,-89.12,86.75,-1.19,4.37,-0.44,0.06,0.06,0.16,158.87,-71.19,234.94,-4.81,1.25,-3.94,4,4
1772644880.042066,988069,0.04,-0.20,0.11,-179.12,-89.12,86.69,-5.19,8.06,-1.50,0.03,0.02,-0.07,158.56,-71.06,234.87,-2.62,0.88,-5.31,4,4
1772644880.082496,988109,0.10,-0.12,0.07,-179.37,-89.00,86.50,-9.13,12.19,-4.56,0.15,0.10,0.04,158.19,-70.87,234.94,-4.19,4.00,-5.81,4,4
1772644880.122812,988150,0.37,-0.10,-0.01,-179.56,-88.69,86.06,-11.69,13.63,-4.00,0.21,0.13,-0.02,158.00,-70.75,234.94,0.44,1.81,-1.12,4,4
1772644880.161882,988189,0.49,0.14,-0.01,-179.62,-88.25,85.62,-12.69,9.56,-1.87,0.17,0.10,-0.22,158.00,-70.62,235.06,1.06,1.69,-1.00,4,4
1772644880.200788,988227,0.27,0.00,0.00,-179.69,-88.06,85.37,-10.00,6.06,-3.94,0.10,-0.17,0.03,157.94,-70.56,235.06,-3.69,2.19,-2.69,5,5
1772644880.242734,988269,0.24,-0.22,0.00,-179.81,-87.87,85.12,-10.13,6.19,-4.50,0.13,0.04,-0.06,157.75,-70.31,235.00,-7.94,5.50,-10.81,5,4
1772644880.283183,988310,0.19,-0.31,0.16,179.87,-87.56,84.81,-11.81,7.69,-3.62,0.17,0.04,-0.02,157.19,-69.94,235.00,-8.31,3.69,-7.69,5,4
1772644880.323432,988350,0.33,-0.46,0.11,179.62,-87.19,84.50,-18.00,9.81,-3.19,-0.21,0.48,-0.23,157.00,-69.56,234.87,-4.19,13.06,-8.44,5,4
1772644880.362284,988389,0.09,0.01,-0.01,179.62,-86.87,83.69,-24.81,10.63,1.75,0.33,0.33,0.17,156.56,-69.00,235.75,21.87,12.63,-6.25,5,4
1772644880.401042,988428,-0.02,0.39,0.05,179.81,-86.37,82.44,-26.37,13.88,4.62,0.10,0.38,0.07,156.12,-68.50,237.00,16.44,12.75,2.19,4,3
1772644880.443094,988470,0.04,0.57,0.08,179.87,-85.87,81.62,-22.75,22.62,-4.19,0.19,-0.22,0.05,156.31,-68.19,237.62,9.25,5.06,2.44,4,3
1772644880.483562,988511,0.53,0.25,-0.08,179.62,-84.75,80.94,-18.12,19.87,-8.13,0.24,-0.10,0.03,156.37,-68.06,238.00,4.19,1.69,2.81,4,3
1772644880.523654,988551,0.04,0.44,0.15,179.44,-84.19,80.50,-14.88,13.19,-7.06,0.19,0.07,0.14,156.44,-68.12,238.12,1.75,1.00,2.31,4,3
1772644880.562887,988590,0.21,0.38,0.14,179.12,-83.44,80.44,-7.50,19.06,-9.94,0.12,-0.07,0.11,156.62,-68.00,238.12,-4.56,4.81,-3.19,3,3
1772644880.602082,988629,0.54,0.03,-0.04,170.81,-82.87,80.56,-2.44,16.00,-10.38,0.30,0.00,-0.01,156.62,-67.81,237.94,-8.75,3.12,-5.19,3,2
1772644880.644410,988671,0.38,-0.18,-0.11,168.75,-82.31,80.87,-0.88,9.50,-6.37,0.17,-0.16,-0.05,156.44,-67.56,237.75,-9.19,1.62,-5.94,3,2
1772644880.684594,988711,0.57,-0.21,-0.13,168.00,-81.87,81.00,-1.87,5.44,-0.81,0.14,0.03,-0.11,156.31,-67.44,237.56,-9.38,0.50,-8.25,2,2
1772644880.724824,988752,0.62,-0.14,-0.04,168.25,-81.75,80.87,-3.37,0.62,2.00,0.31,0.02,-0.20,156.12,-67.25,237.37,-3.62,-0.13,-4.00,3,2
1772644880.763554,988791,0.34,0.04,0.05,169.00,-81.87,80.62,-4.25,-4.56,4.12,0.22,0.10,-0.12,156.06,-67.19,237.31,-3.31,0.56,-1.31,3,2
1772644880.802481,988829,0.11,0.27,0.13,170.19,-82.12,80.25,-2.19,-4.50,5.06,0.14,0.16,0.00,156.25,-67.19,237.12,-1.31,-1.75,1.06,3,2
1772644880.844437,988871,0.09,0.40,0.13,171.25,-82.25,80.06,1.62,-3.19,4.44,-0.05,0.25,0.05,156.37,-67.31,237.00,-1.06,-2.56,1.19,2,2
1772644880.884765,988912,0.25,0.34,0.04,173.12,-82.44,80.00,7.19,-1.94,3.37,0.09,0.27,-0.11,156.50,-67.37,236.81,1.94,-3.50,3.37,3,2
1772644880.924909,988952,0.03,0.22,0.05,173.69,-82.56,80.31,11.75,-2.87,0.94,0.01,0.12,0.03,156.62,-67.62,236.81,4.75,-3.62,4.25,3,2
1772644880.964079,988991,0.20,-0.07,0.07,173.06,-82.62,80.94,14.13,0.37,-1.00,0.21,0.00,0.06,156.50,-67.75,236.94,2.31,-4.06,-1.94,3,2
1772644881.003132,989030,0.24,-0.32,0.01,172.50,-82.56,81.44,13.13,1.81,0.00,0.16,0.00,0.09,156.06,-67.87,237.06,1.81,-3.31,-1.56,3,3
1772644881.045263,989072,0.31,-0.26,0.00,172.25,-82.44,81.94,9.63,2.94,2.00,0.08,-0.05,0.00,155.75,-67.94,237.19,-1.12,-2.00,-2.69,4,3
1772644881.085703,989113,0.33,-0.17,-0.01,172.56,-82.31,82.31,6.19,3.87,3.62,0.12,0.03,-0.04,155.50,-67.94,237.19,-2.19,-1.00,-2.75,4,3
1772644881.125632,989153,0.41,0.01,-0.10,173.75,-82.19,82.31,3.62,3.56,5.06,0.11,0.03,0.00,155.31,-67.94,237.25,0.25,-0.94,-1.25,3,3
1772644881.164929,989192,0.39,0.12,0.01,175.25,-82.12,82.25,2.94,-0.31,5.19,0.13,0.05,-0.04,155.19,-67.94,237.25,-1.37,-1.06,-1.75,3,3
1772644881.204262,989231,0.27,0.01,0.04,176.19,-82.19,82.25,3.25,-2.69,2.94,0.13,0.02,-0.01,155.06,-67.94,237.25,-0.94,-1.75,-1.31,4,3
1772644881.245743,989273,0.20,0.08,0.01,176.69,-82.31,82.25,2.06,-2.31,2.87,0.10,0.04,0.02,155.00,-68.00,237.19,-0.50,-2.25,1.06,4,3
1772644881.286119,989313,0.29,0.16,-0.03,177.62,-82.37,82.19,1.87,-1.56,2.50,0.05,0.06,0.03,155.06,-68.12,237.12,-0.19,-2.81,1.31,4,3
1772644881.326352,989353,0.32,0.14,-0.11,178.19,-82.44,82.19,2.69,-2.06,1.06,0.10,0.04,0.07,155.06,-68.19,237.06,0.94,-1.56,1.12,4,3
1772644881.365501,989392,0.37,0.14,-0.08,178.25,-82.56,82.31,3.50,-3.94,0.44,0.11,0.02,0.04,155.06,-68.25,237.00,-2.31,-1.50,-0.37,4,3
1772644881.405765,989433,0.24,0.11,0.05,178.31,-82.69,82.44,4.69,-5.50,0.44,0.16,0.03,0.00,155.00,-68.31,236.94,-0.81,-0.31,-1.19,4,3
1772644881.446999,989474,0.20,0.05,0.07,178.06,-82.87,82.69,5.56,-3.44,-0.44,0.11,0.07,0.00,155.00,-68.25,236.87,-2.62,-0.56,-1.25,5,5
1772644881.487239,989514,0.32,-0.01,0.06,177.50,-83.00,83.00,5.25,-2.44,-1.44,0.16,0.01,-0.03,154.94,-68.25,236.81,-2.12,-0.81,-1.00,5,5
1772644881.527341,989554,0.31,-0.04,0.06,179.56,-83.19,83.31,4.87,-5.19,-1.69,0.14,0.15,-0.01,154.94,-68.25,236.69,-2.62,-1.12,-0.75,5,5
1772644881.566346,989593,0.27,-0.05,0.08,179.50,-83.37,83.56,4.75,-5.50,-1.25,0.16,-0.04,0.01,154.81,-68.31,236.69,-0.31,-1.75,-1.37,5,5
1772644881.605822,989632,0.35,-0.13,0.04,179.44,-83.50,83.75,4.19,-5.75,-0.37,0.01,0.14,-0.04,154.81,-68.31,236.50,-5.94,-1.19,-1.00,5,5
1772644881.647129,989674,0.36,0.16,-0.08,179.44,-83.81,83.87,3.75,-9.00,1.06,0.12,0.12,-0.12,154.81,-68.37,236.31,0.06,-2.37,0.69,5,5
1772644881.687467,989715,0.50,0.08,-0.07,179.44,-84.25,84.19,8.25,-11.94,0.44,0.16,0.00,0.04,154.81,-68.50,236.25,-0.56,-3.50,0.56,5,5
1772644881.727676,989755,0.31,0.05,-0.03,179.50,-84.87,84.50,10.88,-17.69,3.75,0.11,0.01,0.05,154.69,-68.62,236.25,0.31,-2.12,-0.56,6,5
1772644881.766669,989794,0.16,0.10,0.10,179.69,-85.62,84.81,13.63,-18.69,4.87,0.10,0.02,0.04,154.50,-68.69,236.19,-0.37,-3.62,-0.19,7,6
1772644881.805921,989833,0.00,-0.03,0.18,179.81,-86.12,85.12,14.13,-15.50,4.19,0.08,0.01,0.06,154.37,-68.81,236.12,-1.31,-3.94,0.37,7,6
1772644881.848006,989875,-0.05,-0.15,0.22,179.94,-86.62,85.50,10.88,-9.31,4.56,0.13,0.03,0.02,154.25,-68.94,236.12,-0.81,-3.31,-0.50,5,4
1772644881.888354,989915,-0.07,-0.10,0.22,-179.87,-87.00,85.75,6.44,-3.75,3.87,0.03,0.03,0.16,154.12,-69.06,236.06,0.88,-1.75,-0.31,4,3
1772644881.928499,989955,0.06,-0.09,0.06,-179.75,-87.06,85.81,2.12,2.00,2.87,0.09,0.02,-0.01,154.00,-69.06,236.06,0.31,-0.75,-1.62,5,3
1772644881.967235,989994,0.32,0.04,0.03,-179.69,-86.94,85.75,-0.75,2.12,2.50,0.10,-0.01,0.00,153.87,-69.12,236.19,4.12,-1.06,2.19,5,3
1772644882.006673,990034,0.26,0.13,0.06,-179.62,-86.87,85.62,-1.81,-0.31,1.56,0.12,0.00,0.04,153.87,-69.19,236.25,0.88,-1.25,1.44,5,3
1772644882.048444,990076,0.11,0.15,0.11,-179.56,-86.94,85.50,-1.94,0.06,-0.62,0.17,0.00,0.04,154.00,-69.19,236.12,-1.75,0.44,1.00,5,3
1772644882.088865,990116,0.17,0.15,0.10,-179.56,-86.87,85.44,-1.37,2.37,-2.06,0.08,0.05,-0.03,154.25,-69.25,235.94,-1.56,-0.50,1.44,4,2
1772644882.128931,990156,0.26,0.12,0.06,-179.62,-86.81,85.50,-0.50,2.00,-2.25,0.19,0.08,0.00,154.37,-69.25,235.87,0.37,0.06,1.00,4,2
1772644882.169207,990196,0.24,0.11,0.08,-179.69,-86.69,85.56,1.19,2.94,-2.00,0.17,0.02,-0.03,154.44,-69.25,235.87,0.69,-0.19,0.94,3,2
1772644882.209379,990236,0.22,-0.04,0.08,-179.81,-86.62,85.69,1.25,2.37,-2.37,0.17,0.02,0.03,154.50,-69.31,235.87,0.88,-0.13,0.75,5,3
1772644882.249776,990277,0.15,-0.13,0.11,-179.94,-86.50,85.81,-1.31,3.81,-3.06,0.11,0.00,0.11,154.56,-69.31,235.87,-0.13,0.44,-0.25,4,3
1772644882.290004,990317,-0.02,-0.15,0.11,179.87,-86.31,85.81,-5.94,6.87,-4.50,-0.03,0.09,0.03,154.62,-69.25,235.81,-2.00,1.62,-0.37,5,4
1772644882.329873,990357,0.10,-0.03,0.06,179.69,-85.87,85.75,-7.50,12.06,-4.56,0.01,0.07,0.09,154.75,-69.19,235.75,-2.50,2.31,-0.13,5,4
1772644882.369024,990396,0.23,0.00,-0.04,179.56,-85.37,85.50,-6.69,13.88,-1.69,0.05,0.01,-0.05,154.81,-69.12,235.69,-2.69,1.50,-1.25,4,4
1772644882.408534,990435,0.47,-0.02,-0.08,179.56,-85.00,85.37,-5.37,11.00,0.06,0.14,-0.02,-0.06,154.94,-69.06,235.50,-4.12,-0.13,0.13,5,5
1772644882.450072,990477,0.53,-0.06,-0.13,179.62,-84.62,85.12,-4.00,5.81,1.56,0.17,0.02,0.04,155.06,-69.12,235.31,-2.81,-1.69,1.44,4,4
1772644882.490021,990517,0.17,0.02,0.00,179.75,-84.50,84.81,-4.62,0.94,3.06,0.21,0.11,-0.11,155.19,-69.25,235.19,0.56,-3.00,2.12,4,5
1772644882.530118,990557,0.43,0.08,0.00,179.87,-84.31,84.50,-3.87,4.87,2.25,0.04,0.16,0.00,155.31,-69.31,235.06,-0.31,-0.25,1.12,4,5
1772644882.569212,990596,0.45,0.11,0.00,179.94,-84.19,84.31,-2.94,0.62,1.25,0.08,0.09,-0.04,155.31,-69.37,235.06,1.50,-0.13,0.56,5,4
1772644882.608837,990636,0.10,0.19,0.07,-179.94,-84.25,84.19,-1.87,-3.12,0.75,0.15,0.09,0.09,155.37,-69.37,235.06,-1.62,0.37,-0.31,3,3
1772644882.650651,990678,0.19,0.11,0.00,-179.94,-84.31,84.12,1.19,1.94,-0.19,-0.03,0.10,0.12,155.37,-69.37,235.00,-0.37,-0.81,-1.06,3,3
1772644882.690937,990718,0.23,-0.03,0.00,-179.94,-84.25,84.19,1.19,1.50,0.00,0.11,0.01,-0.02,155.31,-69.37,235.06,-0.06,-0.50,-0.19,3,2
1772644882.730784,990758,0.40,0.07,-0.03,-179.87,-84.19,84.19,0.69,1.25,2.00,0.13,0.06,0.01,155.25,-69.37,235.06,0.88,1.06,0.62,3,2
1772644882.769833,990797,0.30,0.18,-0.04,-179.81,-84.19,84.12,0.37,-0.19,0.94,0.12,0.05,0.04,155.37,-69.31,235.12,2.12,1.69,1.31,3,2
1772644882.809394,990836,0.30,0.06,-0.04,-179.81,-84.19,84.12,1.44,-0.88,-1.44,0.12,0.05,0.04,155.50,-69.31,235.19,1.25,2.06,1.06,2,2
1772644882.851313,990878,0.30,-0.06,-0.04,-179.87,-84.19,84.25,1.50,-1.94,-2.81,0.04,0.00,0.11,155.62,-69.25,235.19,-0.44,2.06,0.81,3,2
1772644882.891646,990919,0.18,-0.16,0.01,179.94,-84.31,84.44,0.00,-2.75,-3.37,0.18,-0.02,0.08,155.81,-69.12,235.12,-3.06,1.81,-1.56,4,2
1772644882.931933,990959,0.17,-0.16,0.00,179.75,-84.37,84.56,-2.44,-1.37,-3.31,0.06,0.08,0.14,155.81,-69.06,235.00,-5.31,-0.31,-3.37,4,1
1772644882.970683,990998,0.21,-0.08,0.05,179.69,-84.37,84.50,-5.00,2.37,-1.87,0.05,0.04,0.03,155.69,-69.00,234.87,-5.87,1.87,-5.06,5,4
1772644883.010040,991037,0.39,0.13,0.04,179.62,-84.25,84.37,-5.81,1.56,-1.12,0.22,0.00,-0.16,155.56,-68.87,234.81,-0.06,1.56,-0.75,6,4
1772644883.051840,991079,0.39,0.20,0.02,179.62,-84.25,84.19,-3.81,-3.06,-1.56,0.18,0.02,-0.02,155.69,-68.87,234.81,0.37,-0.44,1.44,5,4
1772644883.092028,991119,0.16,0.21,0.11,179.56,-84.50,84.06,-1.19,-5.25,-2.06,0.25,0.08,0.15,155.87,-68.87,234.75,0.75,1.37,0.19,6,4
1772644883.132058,991159,0.15,0.06,0.07,179.50,-84.62,84.12,0.62,-2.69,-2.25,0.08,0.12,0.02,155.87,-68.81,234.75,0.13,0.44,0.00,6,5
1772644883.171389,991198,0.18,0.07,0.05,179.44,-84.69,84.31,1.94,-1.31,-2.12,0.06,0.12,-0.01,155.94,-68.75,234.81,0.75,3.19,-0.50,7,5
1772644883.210725,991238,0.28,-0.06,0.02,179.37,-84.75,84.44,3.87,-0.81,-1.75,0.20,0.03,-0.01,155.94,-68.69,234.87,1.50,2.62,-1.00,8,5
1772644883.252799,991280,0.30,-0.10,0.01,179.31,-84.75,84.69,4.25,-1.25,-0.25,0.12,-0.01,-0.03,155.87,-68.56,235.06,0.25,2.25,-1.50,8,6
1772644883.292912,991320,0.29,-0.11,0.00,179.31,-84.87,84.87,3.69,-2.75,0.13,0.16,0.04,-0.04,155.81,-68.44,235.06,-1.75,0.69,-2.37,6,6
1772644883.333077,991360,0.25,-0.03,0.02,179.25,-85.00,85.00,1.94,-4.75,0.06,0.17,0.04,-0.07,155.75,-68.44,235.00,-2.87,-1.00,0.00,6,6
1772644883.372187,991399,0.21,-0.01,0.01,179.25,-85.19,85.06,0.94,-5.62,-1.06,0.06,0.03,-0.05,155.81,-68.44,234.81,-2.87,-1.69,-1.19,4,4
1772644883.412844,991440,0.23,0.00,0.02,179.25,-85.37,85.12,0.94,-5.75,-0.19,0.12,0.12,-0.02,155.75,-68.50,234.75,-0.75,-0.94,-0.62,4,3
1772644883.453389,991481,0.21,0.02,0.03,179.25,-85.62,85.19,1.81,-5.87,0.31,0.13,0.02,0.01,155.69,-68.50,234.75,0.13,-1.06,0.69,4,3
1772644883.493530,991521,0.19,0.02,0.06,179.25,-85.81,85.25,2.69,-5.06,0.81,0.14,-0.04,0.00,155.75,-68.56,234.75,0.88,-0.69,0.88,4,3
1772644883.533418,991561,0.24,0.04,0.06,179.25,-86.00,85.37,3.19,-3.12,0.94,0.15,0.00,0.05,155.75,-68.56,234.75,0.06,0.94,-0.81,3,3
1772644883.572697,991600,0.34,-0.05,0.06,179.25,-86.06,85.44,2.19,-3.44,0.37,0.13,-0.04,-0.03,155.69,-68.56,234.75,1.06,-2.12,0.37,2,2
1772644883.611906,991639,0.17,0.00,0.19,179.25,-86.25,85.50,-0.50,-4.69,0.37,0.14,0.05,0.04,155.56,-68.62,234.81,-0.37,-0.06,-1.56,2,2
1772644883.653974,991681,0.14,0.01,0.16,179.25,-86.37,85.44,-1.94,-3.19,-0.88,0.16,0.04,0.02,155.44,-68.62,234.81,-1.00,-0.94,0.00,2,2
1772644883.694272,991721,0.20,0.04,0.07,179.19,-86.50,85.37,-2.94,-0.69,-1.50,0.10,0.00,0.02,155.44,-68.62,234.75,-0.56,-0.56,-0.50,2,2
1772644883.734287,991761,0.06,0.07,0.09,179.19,-86.50,85.31,-3.06,1.44,-1.19,0.15,0.05,0.04,155.44,-68.62,234.75,0.37,0.62,-1.19,2,1
1772644883.774478,991802,0.23,0.06,0.02,179.12,-86.31,85.19,-2.62,4.69,-1.25,0.06,0.06,0.02,155.31,-68.62,234.81,-0.69,-1.06,-0.13,2,1
1772644883.813624,991840,0.29,0.02,-0.01,179.06,-86.12,85.19,-2.06,4.81,-1.31,0.16,0.06,0.02,155.37,-68.62,234.75,-1.81,1.31,-1.56,4,3
1772644883.854807,991882,0.44,0.00,-0.05,179.06,-86.00,85.19,-1.69,3.00,-1.06,0.15,0.10,0.06,155.37,-68.56,234.69,-0.37,-1.75,0.62,4,3
1772644883.894623,991922,0.16,0.03,-0.01,179.00,-85.94,85.12,-1.19,0.44,-0.44,0.09,0.09,0.00,155.37,-68.62,234.62,0.06,1.00,-0.56,4,3
1772644883.934972,991962,0.22,0.01,-0.02,179.00,-85.94,85.12,-0.13,0.56,-0.37,0.00,0.04,-0.03,155.37,-68.56,234.62,-0.50,-1.12,0.56,4,3
1772644883.974191,992001,0.44,0.06,-0.09,179.00,-85.87,85.12,-0.44,-0.88,-0.06,0.14,0.14,-0.04,155.44,-68.69,234.56,-0.37,-0.37,0.88,5,4
1772644884.013387,992040,0.47,0.10,-0.05,179.00,-86.00,85.12,0.56,-5.81,-0.88,0.30,0.03,-0.11,155.50,-68.62,234.56,-1.62,0.75,0.06,5,4
1772644884.055267,992082,0.29,0.20,0.03,179.00,-86.25,85.12,2.56,-10.50,-0.19,0.07,0.02,0.02,155.81,-68.81,234.25,-1.00,-5.50,9.00,5,4
1772644884.095620,992123,0.39,0.30,-0.07,179.06,-86.75,85.31,6.44,-9.81,-0.81,0.26,-0.04,0.02,156.37,-69.06,233.94,0.25,-0.44,1.94,5,4
1772644884.135605,992163,0.45,0.00,-0.14,179.00,-87.12,85.69,10.31,-12.44,-2.12,0.09,0.02,0.02,156.56,-69.12,233.75,-2.37,-2.69,3.69,5,5
1772644884.174606,992202,0.26,0.02,-0.08,179.00,-87.50,86.06,9.50,-17.25,0.13,0.11,0.08,0.08,156.87,-69.31,233.50,-0.50,-3.44,3.94,5,5
1772644884.213812,992241,0.00,0.04,0.05,178.94,-88.06,86.37,9.75,-17.06,-0.25,0.02,0.15,0.08,157.00,-69.37,233.44,-0.50,-1.19,1.19,4,3
1772644884.255958,992283,0.01,-0.04,0.07,178.94,-88.50,86.81,9.13,-11.38,-2.00,-0.01,0.12,0.12,157.19,-69.44,233.31,0.94,0.06,1.69,4,5
1772644884.296016,992323,0.23,-0.21,0.10,178.81,-88.69,87.31,7.69,-7.19,-2.31,-0.01,0.17,0.08,157.19,-69.37,233.44,1.00,3.62,-1.37,4,5
1772644884.336214,992363,0.33,-0.62,0.12,178.75,-88.69,87.56,2.31,-9.06,-1.06,-0.16,0.04,0.01,157.19,-69.19,233.62,6.25,10.38,-0.88,4,4
1772644884.375307,992402,0.51,-0.21,0.24,1.19,-88.75,87.44,-3.50,-10.94,4.56,0.07,-0.25,-0.04,157.44,-68.62,234.12,5.25,19.00,-1.31,4,4
1772644884.414331,992441,0.20,0.58,0.14,0.94,-88.81,87.06,-5.12,-19.56,7.69,0.19,-0.14,-0.04,157.62,-68.06,234.44,-3.31,8.19,-2.56,3,3
1772644884.456538,992483,-0.62,0.53,0.35,0.75,-88.44,86.75,1.31,-12.19,-1.25,0.59,0.15,0.01,157.75,-68.06,234.00,-8.81,-6.44,-2.06,4,4
1772644884.496702,992524,-0.16,-0.03,0.33,1.00,-88.12,87.12,5.50,3.69,-5.81,0.09,0.12,0.16,157.81,-68.37,233.56,3.31,-7.06,5.75,3,4
1772644884.536787,992564,0.13,-0.04,0.15,1.12,-88.31,87.50,4.62,10.31,-3.62,0.23,0.12,-0.01,158.12,-68.62,233.44,3.75,-0.56,7.19,4,4
1772644884.575914,992603,0.19,-0.09,-0.01,1.31,-88.44,87.81,2.50,12.25,-3.81,0.31,-0.10,-0.02,158.75,-68.69,233.37,4.37,2.00,7.81,4,4
1772644884.614870,992642,0.51,-0.07,-0.07,1.37,-88.50,88.00,-0.13,12.13,-3.69,0.18,-0.08,0.08,159.25,-68.81,233.31,1.25,-2.19,5.87,5,6
1772644884.657218,992684,0.37,-0.15,-0.10,1.56,-88.37,88.12,-3.06,5.69,-5.37,0.08,-0.03,0.00,159.44,-68.69,233.19,-1.25,3.00,-1.50,5,6
1772644884.697529,992725,0.15,-0.19,-0.07,178.06,-88.06,88.19,-5.87,2.94,-4.81,0.10,0.05,-0.01,159.37,-68.56,233.19,-2.56,1.44,-1.81,6,6
1772644884.737659,992765,0.17,-0.04,0.00,177.94,-87.94,88.06,-7.69,2.69,-2.69,0.15,0.05,0.18,159.37,-68.56,233.12,-0.44,0.31,-0.69,5,5
1772644884.777595,992805,0.15,-0.12,0.00,177.87,-87.81,87.87,-8.19,4.12,-0.81,0.09,0.10,0.01,159.37,-68.50,233.12,-0.06,1.12,-0.88,5,5
1772644884.816810,992844,0.27,0.11,-0.08,177.87,-87.81,87.50,-9.88,3.37,1.25,-0.01,0.04,0.06,159.44,-68.50,233.12,-1.31,0.19,1.06,5,6
1772644884.858138,992885,0.22,0.22,-0.05,177.94,-87.75,87.12,-7.87,2.87,-1.25,0.19,0.11,-0.04,159.69,-68.50,232.87,-4.87,0.31,-0.69,6,6
1772644884.898036,992925,0.26,0.17,-0.04,177.81,-87.62,86.87,-5.50,3.87,-2.62,0.18,0.16,-0.03,159.75,-68.50,232.81,0.75,1.25,1.75,6,5
1772644884.938135,992965,0.33,0.11,-0.01,177.75,-87.50,86.81,-4.06,2.87,-2.56,0.17,0.07,-0.01,160.00,-68.50,232.75,1.12,0.50,3.06,6,5
1772644884.977018,993004,0.24,0.07,0.04,177.69,-87.37,86.81,-3.00,0.75,-2.62,0.18,0.00,-0.05,160.25,-68.56,232.69,1.50,0.50,3.94,7,6
1772644885.016684,993044,0.19,-0.01,0.10,177.62,-87.31,86.81,-1.94,1.25,-2.62,0.18,-0.03,0.04,160.56,-68.56,232.62,-0.25,0.81,2.37,6,4
1772644885.058387,993086,0.11,-0.04,0.07,177.50,-87.25,86.81,-3.06,1.50,-1.25,0.11,0.04,0.00,160.75,-68.56,232.56,0.31,1.19,1.44,5,3
1772644885.098801,993126,0.17,-0.16,-0.02,177.44,-87.12,86.69,-3.31,2.87,-1.56,0.18,0.05,0.05,160.94,-68.50,232.50,-1.69,0.94,-1.12,5,3
1772644885.138875,993166,0.25,-0.27,-0.14,177.37,-87.00,86.56,-7.31,2.44,-0.37,0.27,0.09,0.02,160.75,-68.44,232.50,0.00,1.00,-4.56,5,3
1772644885.177877,993205,0.28,-0.05,-0.02,177.37,-86.94,86.31,-9.94,1.50,0.81,0.27,0.14,0.06,160.25,-68.37,232.75,0.06,-0.69,-5.81,5,3
1772644885.216866,993244,0.07,0.09,0.08,177.44,-86.94,85.87,-8.81,1.50,1.25,0.05,0.11,-0.07,159.94,-68.44,232.81,0.13,-5.06,-0.75,4,3
1772644885.258972,993286,0.14,0.25,0.10,177.50,-86.94,85.56,-4.19,5.44,0.94,0.09,0.18,-0.06,159.62,-68.50,232.87,1.12,0.62,-3.87,5,3
1772644885.299221,993327,0.31,0.15,0.05,177.56,-86.81,85.37,0.62,6.12,1.37,0.17,0.10,0.03,159.31,-68.44,233.06,1.12,-1.69,-1.44,4,3
1772644885.339692,993367,0.36,0.09,-0.05,177.62,-86.75,85.44,4.12,4.69,1.87,0.12,0.11,-0.04,159.12,-68.50,233.12,-0.31,-0.50,-2.31,3,3
1772644885.378493,993406,0.34,0.06,-0.04,177.69,-86.75,85.50,6.44,1.37,2.12,0.20,0.07,-0.02,158.94,-68.44,233.25,-0.31,0.75,-3.00,3,3
1772644885.417515,993445,0.06,-0.01,0.07,177.81,-86.81,85.69,6.69,0.50,4.25,0.12,0.03,-0.06,158.81,-68.44,233.37,2.75,-0.88,1.00,3,4
1772644885.459473,993487,0.02,0.05,0.13,177.94,-86.87,85.75,4.12,0.44,3.69,0.03,0.05,0.02,158.87,-68.50,233.44,3.94,-0.25,1.81,3,4
1772644885.499851,993527,0.06,0.02,0.12,178.06,-86.87,85.81,2.69,5.81,1.44,0.11,0.00,0.02,158.87,-68.50,233.56,2.94,-0.44,1.87,3,3
1772644885.540161,993567,0.34,0.03,-0.01,178.06,-86.62,85.94,1.87,11.75,0.06,0.04,-0.01,0.08,158.94,-68.56,233.62,1.19,-0.88,0.69,4,3
1772644885.579583,993607,0.40,0.07,-0.13,178.06,-86.25,86.00,1.56,9.06,-0.25,0.15,0.03,-0.08,158.87,-68.56,233.69,-0.88,0.75,-1.37,4,3
1772644885.618962,993646,0.53,0.05,-0.17,178.06,-86.06,86.06,1.62,3.69,-1.75,0.13,-0.06,-0.02,158.87,-68.56,233.56,-2.81,-1.06,-0.44,5,4
1772644885.661224,993688,0.42,-0.12,-0.11,178.00,-85.94,86.19,2.25,-2.94,-1.00,0.20,-0.02,-0.05,158.81,-68.56,233.50,-0.81,-0.25,-1.44,5,4
1772644885.701021,993728,0.25,-0.04,-0.03,178.00,-86.12,86.31,1.25,-3.69,1.56,0.08,0.00,0.04,158.75,-68.56,233.50,-0.37,-0.56,-0.69,5,4
1772644885.740836,993768,0.17,0.02,0.00,178.06,-86.31,86.25,0.88,-3.37,2.62,0.10,0.07,0.02,158.62,-68.56,233.56,-0.25,0.13,-1.44,5,4
1772644885.780946,993808,0.19,0.17,0.04,178.12,-86.37,86.19,0.69,-2.25,2.12,0.12,0.09,0.09,158.56,-68.50,233.62,0.13,-0.56,-0.13,5,3
1772644885.821096,993848,0.17,0.07,-0.01,178.19,-86.50,86.12,1.00,-2.50,0.44,0.12,0.11,0.01,158.56,-68.50,233.62,0.00,-0.56,-0.13,4,2
1772644885.861679,993889,0.09,0.03,0.00,178.19,-86.62,86.19,0.75,-1.37,-0.31,0.04,0.03,0.01,158.56,-68.50,233.56,-0.81,-0.56,0.37,4,2
1772644885.901635,993929,0.20,-0.01,0.04,178.19,-86.56,86.19,0.37,2.81,-1.50,0.12,0.05,0.03,158.56,-68.56,233.56,0.56,0.81,-0.31,3,3
1772644885.941605,993969,0.29,-0.01,0.03,178.12,-86.44,86.25,0.00,1.12,-1.00,0.19,0.04,-0.03,158.62,-68.50,233.62,0.19,0.50,0.25,3,3
1772644885.981769,994009,0.22,0.02,0.02,178.12,-86.44,86.25,0.06,-0.06,-0.50,0.21,0.07,0.03,158.62,-68.44,233.62,-0.31,0.88,0.13,2,3
1772644886.022366,994049,0.48,-0.07,-0.04,178.12,-86.44,86.31,-0.69,-0.62,-0.81,0.09,-0.01,-0.02,158.69,-68.44,233.62,-0.25,0.31,0.06,1,3
1772644886.062600,994090,0.06,0.03,0.07,178.12,-86.50,86.25,-1.44,-4.06,-0.13,0.15,0.07,-0.01,158.69,-68.44,233.62,-0.50,0.25,-0.31,1,2
1772644886.102772,994130,0.18,-0.02,0.08,178.12,-86.56,86.25,-0.44,-0.56,-0.06,0.13,0.03,0.04,158.69,-68.44,233.62,-0.56,-0.31,-0.44,1,2
1772644886.142435,994170,0.12,-0.05,0.06,178.12,-86.62,86.19,-0.81,-0.88,0.44,0.15,0.05,0.00,158.62,-68.44,233.62,-0.62,0.25,-1.56,2,2
1772644886.181685,994209,0.19,0.01,0.02,178.12,-86.62,86.12,-1.06,0.81,0.56,0.13,0.11,0.00,158.50,-68.37,233.62,-0.44,-0.50,-1.19,3,3
1772644886.220892,994248,0.29,0.00,0.01,178.12,-86.56,86.12,-0.44,1.37,0.37,0.22,0.05,-0.05,158.44,-68.37,233.62,-0.62,0.00,-1.50,4,5
1772644886.262838,994290,0.29,0.03,-0.05,178.12,-86.56,86.12,-0.06,0.62,0.56,0.09,0.10,0.06,158.31,-68.37,233.69,-1.19,-1.12,-1.25,4,4
1772644886.302991,994330,0.32,0.08,-0.05,178.19,-86.62,86.06,1.31,-2.12,1.81,0.16,0.01,0.06,158.19,-68.44,233.69,0.56,-0.62,-0.31,4,4
1772644886.343036,994370,0.20,0.06,0.00,178.25,-86.75,86.06,2.44,-3.31,2.81,0.15,0.02,-0.09,158.12,-68.37,233.75,0.13,1.12,-1.62,4,4
1772644886.382361,994410,0.33,0.11,-0.05,178.37,-86.87,86.06,3.19,-3.44,1.94,0.05,0.12,-0.05,158.12,-68.37,233.75,-0.50,-1.19,1.12,4,4
1772644886.421932,994449,0.28,0.07,0.04,178.37,-87.00,86.12,3.19,-6.19,-1.00,0.20,0.04,-0.07,158.06,-68.37,233.69,0.13,-0.56,-1.37,5,4
1772644886.463470,994491,0.29,-0.03,-0.05,178.37,-87.19,86.31,2.69,-6.06,-1.00,0.16,0.05,0.07,158.00,-68.37,233.75,0.81,-0.88,0.50,5,4
1772644886.503545,994531,0.29,0.08,-0.01,178.31,-87.44,86.44,3.06,-10.44,0.19,0.06,0.07,0.12,157.94,-68.44,233.75,0.37,-1.75,-0.37,5,5
1772644886.543925,994571,0.08,0.10,-0.01,178.37,-87.75,86.56,4.56,-9.19,1.56,0.05,0.05,0.09,157.87,-68.44,233.75,0.06,-0.62,-0.88,5,5
1772644886.584093,994611,0.33,0.01,0.04,178.44,-87.94,86.62,6.19,-6.12,1.81,0.15,-0.05,-0.01,157.81,-68.50,233.81,-0.31,-0.44,-0.62,4,4
1772644886.623129,994650,0.03,0.02,0.05,178.50,-88.19,86.81,4.37,-3.69,2.31,0.26,0.11,0.04,157.69,-68.44,233.81,-0.69,0.37,-1.31,3,2
1772644886.664261,994692,0.45,0.07,-0.04,178.56,-88.25,86.87,4.06,-1.06,1.87,0.16,0.00,-0.08,157.69,-68.44,233.81,0.00,0.25,-0.37,4,3
1772644886.704335,994732,0.17,0.00,0.05,178.62,-88.50,86.94,2.62,-8.19,1.75,0.18,0.03,-0.06,157.62,-68.44,233.87,0.56,-0.06,-0.50,4,3
1772644886.744412,994772,-0.07,0.05,0.12,178.75,-88.62,86.94,1.56,-5.00,1.31,0.21,0.08,0.02,157.62,-68.44,233.87,1.06,-0.31,0.50,4,3
1772644886.784601,994812,-0.01,0.02,0.13,178.69,-88.69,87.00,0.31,-0.88,-0.81,0.02,0.06,0.00,157.62,-68.44,233.87,0.37,-0.44,1.44,4,3
1772644886.824646,994852,0.15,0.08,0.12,178.69,-88.62,87.00,0.00,1.50,-1.75,0.20,0.09,0.03,157.75,-68.44,233.81,-0.06,0.19,-0.56,4,2
1772644886.864881,994892,0.43,0.08,0.08,178.56,-88.50,87.12,0.31,1.37,-1.87,0.07,0.09,0.00,157.69,-68.44,233.87,1.12,-0.62,0.56,4,2
1772644886.905014,994932,0.10,0.01,0.14,178.56,-88.50,87.19,1.62,-2.25,-0.88,0.32,0.03,-0.03,157.69,-68.44,233.87,1.25,-0.19,0.19,4,2
1772644886.945250,994972,0.28,-0.07,0.00,178.56,-88.50,87.31,1.87,-0.37,-0.13,0.09,0.02,0.01,157.69,-68.50,233.94,0.62,-2.31,1.25,4,2
1772644886.985545,995013,0.22,-0.02,0.02,178.56,-88.50,87.31,0.56,-1.25,0.13,0.05,-0.04,0.00,157.69,-68.56,233.87,-0.50,-0.50,-0.13,4,2
1772644887.024726,995052,0.13,-0.11,0.04,178.56,-88.50,87.31,-2.19,-2.19,-0.69,0.34,0.00,0.08,157.69,-68.62,233.81,-3.31,-3.50,-0.75,5,4
1772644887.065652,995093,0.13,0.04,0.10,178.50,-88.50,87.19,-5.62,0.81,-1.94,0.01,0.09,-0.03,157.62,-68.75,233.56,-4.94,-4.94,0.81,5,3
1772644887.105807,995133,0.28,0.14,0.03,178.37,-88.31,87.00,-7.00,1.75,-3.31,0.05,0.07,0.11,157.69,-68.94,233.25,-3.56,-2.00,-0.44,5,4
1772644887.146011,995173,0.12,0.02,-0.05,178.19,-88.19,86.94,-5.44,1.81,-4.31,0.04,0.07,0.04,157.62,-68.87,233.12,-5.87,1.00,-6.06,4,3
1772644887.185345,995212,0.20,0.00,-0.14,178.06,-88.00,86.94,-4.69,4.19,-2.75,0.05,0.28,-0.05,157.31,-68.81,233.00,-4.44,-0.94,-2.44,4,4
1772644887.224601,995252,0.34,0.06,-0.12,178.00,-87.87,86.87,-3.12,3.37,-2.00,0.07,0.15,0.00,157.37,-68.81,232.87,-1.87,1.00,-1.56,4,4
1772644887.266008,995293,0.38,0.04,-0.12,177.94,-87.81,86.81,-1.81,0.31,0.75,0.13,0.09,0.05,157.31,-68.69,233.00,4.19,4.00,0.19,4,4
1772644887.306355,995334,0.44,0.10,-0.19,178.06,-87.94,86.69,1.50,-0.25,2.62,0.23,-0.11,0.00,157.31,-68.50,233.31,2.87,4.69,-2.31,5,4
1772644887.346636,995374,0.23,-0.10,-0.07,178.12,-88.06,86.69,2.69,-4.50,2.75,0.07,-0.06,0.00,157.19,-68.31,233.50,-0.25,1.06,-1.00,5,4
1772644887.385971,995413,0.09,-0.06,0.02,178.31,-88.25,86.56,0.13,-5.81,3.25,0.09,-0.01,0.02,157.12,-68.31,233.50,-1.81,0.75,-1.12,5,4
1772644887.425538,995453,0.10,-0.05,0.05,178.37,-88.31,86.50,-2.69,-4.06,1.94,0.14,0.05,0.03,157.12,-68.25,233.44,-1.44,-0.31,-1.31,3,2
1772644887.466979,995494,0.18,0.11,0.10,178.44,-88.44,86.31,-4.81,-2.00,0.06,0.17,0.11,0.02,157.06,-68.31,233.37,-2.25,-0.88,-1.69,3,2
1772644887.507133,995534,0.22,0.10,0.09,178.37,-88.37,86.06,-4.50,-2.44,-0.56,0.15,0.04,-0.10,156.87,-68.25,233.37,-1.44,0.56,-1.94,4,2
1772644887.547228,995575,0.31,0.17,0.04,1.50,-88.44,85.94,-2.81,-2.94,0.62,0.23,0.01,-0.13,156.87,-68.25,233.37,0.13,-0.56,0.56,4,2
1772644887.586723,995614,0.36,0.15,-0.06,1.50,-88.37,85.87,-0.19,-3.62,0.44,0.23,-0.01,-0.10,156.94,-68.19,233.37,0.75,-0.37,1.94,4,2
1772644887.625782,995653,0.47,0.07,-0.15,1.50,-88.37,85.87,2.31,-6.00,0.62,0.19,-0.05,-0.09,157.06,-68.25,233.31,1.19,-2.06,2.50,4,2
1772644887.667172,995695,0.03,0.00,0.18,1.44,-88.37,85.87,2.06,-9.75,1.87,0.09,0.10,0.14,157.25,-68.37,233.25,0.62,-1.69,2.56,3,1
1772644887.707650,995735,-0.25,0.11,0.25,1.37,-88.25,85.87,0.69,-5.37,1.81,0.00,0.07,0.10,157.44,-68.50,233.12,1.81,-0.44,3.50,3,1
1772644887.747602,995775,0.00,0.10,0.18,1.31,-88.25,85.81,0.00,1.06,-0.06,0.13,0.03,0.07,157.56,-68.50,233.19,0.62,0.94,-1.12,3,1
1772644887.788080,995815,0.13,0.01,0.10,1.31,-88.25,85.87,-0.13,3.06,-1.06,0.13,0.03,0.05,157.50,-68.50,233.19,-0.31,-0.50,-0.13,3,1
1772644887.828382,995855,0.17,-0.06,-0.01,1.37,-88.31,85.87,-0.62,3.31,-0.31,0.10,0.03,0.02,157.50,-68.50,233.19,-0.50,-1.00,0.06,3,2
1772644887.868386,995896,0.17,0.02,0.00,1.37,-88.37,85.81,-1.56,2.69,0.94,0.15,0.01,0.00,157.50,-68.50,233.19,-0.62,-0.56,0.56,5,4
1772644887.908529,995936,0.21,0.08,-0.03,1.31,-88.44,85.69,-1.56,3.25,1.00,0.12,0.08,0.00,157.50,-68.50,233.19,-0.13,-0.81,0.44,4,4
1772644887.948378,995976,0.30,0.08,-0.08,1.31,-88.56,85.62,-1.50,3.19,0.69,0.16,0.01,0.00,157.50,-68.56,233.19,0.94,0.13,0.75,4,5
1772644887.988652,996016,0.26,0.01,-0.01,1.31,-88.56,85.62,-0.69,2.50,0.25,0.09,0.02,-0.04,157.56,-68.50,233.19,0.44,-0.13,0.37,4,4
1772644888.027822,996055,0.28,0.08,0.02,1.31,-88.62,85.56,-0.56,2.12,0.25,0.11,0.04,-0.04,157.62,-68.50,233.12,-0.44,1.75,0.94,4,5
1772644888.069425,996096,0.24,0.00,0.01,1.31,-88.62,85.56,-0.13,-0.62,-1.44,0.23,-0.02,0.02,157.62,-68.50,233.12,-1.06,-0.94,-0.37,5,6
1772644888.109405,996136,0.09,-0.11,0.06,1.31,-88.56,85.62,-0.25,-1.87,-0.44,0.04,-0.01,-0.02,157.69,-68.56,233.00,-0.19,-4.00,2.19,4,5
1772644888.149695,996177,0.13,-0.06,0.11,1.31,-88.56,85.56,-1.12,0.00,1.25,0.16,-0.02,0.03,157.69,-68.69,232.94,-1.31,-1.25,0.31,4,5
1772644888.188686,996216,0.18,0.03,0.07,1.25,-88.56,85.44,-2.87,0.94,2.12,0.15,0.08,0.07,157.75,-68.75,232.81,-0.81,-2.62,0.88,5,6
1772644888.227804,996255,0.19,0.13,0.00,1.19,-88.69,85.25,-4.06,1.81,1.81,0.13,0.10,0.05,157.75,-68.87,232.69,-1.62,-2.00,1.06,5,5
1772644888.269577,996297,0.20,0.12,-0.04,1.12,-88.75,85.06,-3.12,2.19,0.81,0.08,0.10,-0.02,157.81,-68.94,232.56,-0.69,-1.37,0.94,3,3
1772644888.309761,996337,0.25,0.18,-0.06,1.12,-88.81,84.87,-1.44,2.06,-0.06,0.14,0.07,0.00,157.87,-69.00,232.56,0.31,-1.25,0.56,3,3
1772644888.349873,996377,0.20,0.10,-0.04,1.06,-88.87,84.87,1.31,1.81,-0.13,0.12,0.07,0.03,157.81,-69.06,232.50,0.19,-0.81,1.06,3,2
1772644888.389810,996417,0.23,0.07,-0.03,1.06,-88.87,84.94,1.94,1.50,-0.19,0.09,0.07,0.06,157.87,-69.12,232.50,0.19,-0.56,0.94,3,2
1772644888.430142,996457,0.17,0.04,-0.06,178.87,-88.87,85.00,1.87,1.69,-0.37,0.11,0.04,0.03,157.94,-69.12,232.44,-0.13,0.25,0.37,3,2
1772644888.470512,996498,0.17,0.02,-0.04,178.87,-88.87,85.06,1.31,2.12,-1.00,0.07,0.06,0.03,157.94,-69.12,232.44,-0.37,-0.69,0.62,2,1
1772644888.510558,996538,0.17,-0.01,-0.07,178.81,-88.81,85.19,1.00,2.87,-1.31,0.15,0.03,0.03,157.94,-69.12,232.44,0.37,0.94,0.06,2,1
1772644888.550771,996578,0.29,0.01,-0.09,178.81,-88.75,85.25,0.37,2.50,-0.50,0.15,0.05,0.00,158.00,-69.12,232.44,-0.37,-0.50,0.62,2,1
1772644888.590789,996618,0.34,0.01,-0.10,178.81,-88.75,85.25,0.19,0.50,0.00,0.17,0.02,-0.01,158.00,-69.12,232.44,0.25,0.00,-0.06,2,1
1772644888.630967,996658,0.31,0.03,-0.12,178.81,-88.75,85.25,0.50,-1.37,0.56,0.14,0.07,0.00,158.00,-69.12,232.44,-0.13,-0.56,0.00,2,1
1772644888.671799,996699,0.29,0.08,-0.14,178.81,-88.75,85.25,1.37,-2.81,0.37,0.10,0.08,-0.02,158.00,-69.12,232.44,0.06,-0.19,-0.13,2,2
1772644888.711148,996739,0.21,0.04,-0.08,178.81,-88.81,85.31,2.06,-4.25,0.31,0.12,0.06,0.01,158.00,-69.12,232.44,0.62,0.56,-0.13,4,3
1772644888.751197,996779,0.27,0.08,-0.04,1.12,-88.81,85.37,2.44,-4.75,0.44,0.19,0.05,0.00,157.94,-69.12,232.44,0.25,0.00,-0.44,3,3
1772644888.791377,996819,0.28,0.08,0.00,1.12,-88.81,85.44,4.06,-7.06,0.44,-0.02,0.07,-0.01,157.94,-69.12,232.44,0.00,-0.62,0.56,4,3
1772644888.830381,996858,0.11,0.00,0.04,1.12,-88.69,85.62,5.25,-7.62,0.81,0.26,0.05,0.10,157.94,-69.12,232.44,0.44,1.62,-1.25,3,3
1772644888.871714,996899,0.13,0.00,0.01,1.06,-88.62,85.75,4.12,-5.06,2.12,0.09,0.14,-0.05,157.94,-69.12,232.50,0.19,-0.06,0.56,4,4
1772644888.911742,996939,0.18,0.08,0.03,1.00,-88.56,85.87,3.44,-4.06,-0.19,0.13,0.08,-0.01,158.06,-69.12,232.50,0.44,0.75,0.62,4,4
1772644888.952013,996979,0.11,-0.01,0.05,1.06,-88.44,86.00,2.00,-3.69,-1.50,0.18,0.04,-0.01,158.00,-69.06,232.50,0.56,0.50,-0.81,4,4
1772644888.992024,997019,0.17,0.00,0.07,1.12,-88.31,86.12,1.44,-1.81,-0.81,0.16,0.05,-0.01,158.00,-69.06,232.56,0.88,0.75,-0.62,5,4
1772644889.032396,997059,0.14,-0.05,0.13,1.12,-88.25,86.19,1.37,-1.87,-0.25,0.17,0.00,0.02,157.94,-69.06,232.62,-0.06,-0.37,-0.06,5,4
1772644889.072615,997100,0.07,-0.04,0.14,1.12,-88.25,86.19,0.19,0.06,0.75,0.10,0.03,0.00,157.94,-69.06,232.62,0.88,-0.50,-0.13,5,4
1772644889.112563,997140,0.08,0.00,0.09,1.06,-88.25,86.19,-0.94,1.69,0.75,0.15,0.07,-0.04,157.87,-69.06,232.62,0.94,-0.31,0.31,3,3
1772644889.152535,997180,0.15,0.08,0.08,1.06,-88.31,86.12,-1.75,2.00,0.44,0.12,0.03,0.03,157.87,-69.06,232.69,0.44,-0.88,0.94,3,2
1772644889.192949,997220,-0.04,0.03,0.00,1.06,-88.44,86.00,-1.56,3.69,-0.19,0.11,0.00,0.10,157.87,-69.06,232.69,-0.81,-0.37,-0.75,3,2
1772644889.232013,997259,0.12,0.04,-0.08,1.06,-88.56,85.94,-1.87,6.25,0.88,0.13,0.12,-0.01,157.81,-69.06,232.62,-1.62,0.25,-1.81,3,2
1772644889.273114,997300,0.24,0.09,-0.16,1.00,-88.69,85.87,-2.31,5.25,0.25,0.18,0.12,-0.07,157.75,-69.06,232.62,-0.31,0.06,-0.37,3,2
1772644889.313220,997341,0.27,0.17,-0.20,1.00,-88.81,85.81,-1.75,3.31,-0.06,0.18,0.06,-0.06,157.69,-69.06,232.62,1.37,0.06,0.44,2,1
1772644889.353273,997381,0.19,0.14,-0.15,1.00,-88.87,85.69,-0.06,1.25,-0.62,0.15,0.00,-0.02,157.69,-69.06,232.69,1.19,0.37,-0.37,2,1
1772644889.393218,997421,0.11,0.01,-0.09,1.00,-88.87,85.75,1.37,0.50,-0.19,0.13,0.00,0.00,157.69,-69.06,232.75,0.31,-0.37,-0.37,1,1
1772644889.433501,997461,0.09,0.00,-0.11,1.00,-88.94,85.81,0.94,0.25,1.06,0.09,0.03,0.04,157.69,-69.06,232.69,-0.94,0.00,-0.69,1,1
1772644889.474094,997501,0.03,0.04,-0.11,0.94,-88.94,85.75,-0.50,1.94,0.44,0.13,0.05,0.09,157.62,-69.00,232.69,-1.37,0.69,-1.69,1,1
1772644889.513986,997541,0.03,0.02,-0.11,0.94,-89.00,85.69,-2.25,4.12,-0.13,0.11,0.09,0.00,157.50,-69.00,232.69,-2.87,0.00,-2.87,1,1
1772644889.554104,997581,0.16,0.03,-0.10,179.00,-89.00,85.62,-3.25,4.87,-0.88,0.11,0.04,0.00,157.31,-68.94,232.69,-2.25,0.50,-2.50,3,4
1772644889.593628,997621,0.19,0.03,-0.13,179.00,-88.94,85.50,-3.37,4.94,-0.19,0.15,0.05,-0.03,157.25,-68.87,232.69,-1.62,2.19,-2.94,4,5
1772644889.632775,997660,0.21,0.09,-0.14,179.00,-88.87,85.37,-3.75,2.87,0.31,0.08,0.08,-0.01,157.12,-68.75,232.69,-1.25,0.69,-1.37,3,5
1772644889.674233,997702,0.19,0.15,-0.10,179.00,-88.87,85.25,-2.12,1.69,-0.50,0.30,0.07,0.09,157.06,-68.69,232.75,0.50,3.37,-1.62,4,5
1772644889.714519,997742,0.33,0.09,-0.14,179.00,-88.81,85.19,0.94,0.50,-1.25,0.17,0.05,-0.10,157.00,-68.50,232.81,-2.00,1.25,-2.62,4,5
1772644889.754773,997782,0.05,0.04,-0.12,179.00,-88.81,85.31,3.44,-2.56,1.00,0.22,0.12,-0.08,156.94,-68.50,232.81,2.00,-0.19,1.31,4,5
1772644889.793959,997821,0.04,0.07,-0.02,179.06,-88.94,85.37,5.62,-3.00,4.00,0.04,0.11,0.00,157.00,-68.56,232.81,1.62,-3.06,-0.37,4,6
1772644889.833157,997861,0.03,0.03,0.01,179.25,-89.12,85.44,7.12,-1.62,4.56,0.13,0.05,0.03,156.75,-68.56,232.94,4.87,0.31,-1.81,6,6
1772644889.874987,997902,0.15,0.02,-0.04,179.44,-89.31,85.50,5.94,0.06,3.87,0.24,-0.03,0.05,156.50,-68.56,233.19,-0.69,-1.50,-0.50,7,6
1772644889.915340,997943,0.17,0.00,-0.13,179.56,-89.37,85.62,3.87,0.69,2.00,0.20,-0.09,-0.08,156.37,-68.62,233.19,-2.94,-0.44,-2.81,7,6
1772644889.955869,997983,0.14,-0.08,-0.11,179.56,-89.37,85.69,0.69,-1.50,-0.75,0.05,-0.04,0.00,156.12,-68.56,233.06,-5.69,-1.44,-4.81,6,4
1772644889.995031,998022,0.08,-0.02,-0.05,179.50,-89.44,85.69,-3.25,-1.94,-1.19,0.07,0.09,0.00,155.87,-68.56,232.94,-4.19,-1.31,-3.19,6,3
1772644890.034516,998061,0.14,0.10,-0.07,179.44,-89.37,85.56,-5.50,-0.62,-2.06,0.15,0.08,-0.03,155.75,-68.56,232.81,-4.12,-1.00,-2.12,6,3
1772644890.075668,998103,0.12,0.18,-0.08,179.37,-89.31,85.44,-5.12,-0.19,-1.69,0.14,0.14,0.01,155.81,-68.56,232.69,-0.31,0.62,1.00,6,3
1772644890.115824,998143,0.15,0.28,-0.09,179.37,-89.31,85.25,-2.81,0.00,-1.25,0.13,0.07,0.02,156.00,-68.56,232.62,-0.25,0.00,2.37,5,3
1772644890.155860,998183,0.08,0.10,-0.09,179.37,-89.31,85.25,0.31,-0.25,-1.75,0.13,0.00,0.00,156.19,-68.62,232.56,1.19,0.13,2.00,5,3
1772644890.195371,998223,0.06,0.00,-0.07,179.31,-89.25,85.31,1.69,-0.81,-1.37,0.10,-0.01,0.05,156.31,-68.62,232.50,0.94,-0.13,1.75,5,2
1772644890.236205,998264,0.12,-0.06,-0.02,179.25,-89.19,85.37,1.19,-0.13,-0.50,0.08,0.01,0.03,156.44,-68.62,232.50,0.06,-0.13,0.44,5,2
1772644890.276848,998304,-0.18,-0.13,0.07,179.25,-89.19,85.44,-0.88,1.37,0.06,0.13,0.00,0.03,156.44,-68.62,232.50,-0.37,0.88,-0.56,3,1
1772644890.316830,998344,-0.37,-0.05,0.22,179.31,-89.06,85.31,-3.25,11.38,1.31,0.07,0.04,0.07,156.44,-68.56,232.50,-0.69,2.19,-2.44,3,2
1772644890.356999,998384,0.23,0.02,0.08,179.37,-88.75,85.12,-4.00,19.87,2.81,0.19,0.10,-0.05,156.31,-68.44,232.62,-0.37,2.00,-1.94,3,2
1772644890.396659,998424,0.53,0.10,-0.15,179.50,-88.12,84.87,-2.44,14.81,2.06,0.26,-0.01,-0.15,156.25,-68.31,232.69,-0.37,2.81,-1.50,4,3
1772644890.435510,998463,0.52,0.08,-0.19,179.56,-87.69,84.75,-1.62,5.81,1.56,0.23,-0.02,-0.11,156.25,-68.19,232.75,-0.88,0.25,-1.94,4,3
1772644890.477320,998504,0.29,0.06,-0.17,179.62,-87.56,84.62,-1.50,-0.69,0.69,0.14,0.11,-0.05,155.94,-68.19,232.87,-0.19,-1.25,-1.56,4,3
1772644890.517528,998545,0.20,0.06,-0.06,179.62,-87.56,84.50,-2.12,-2.25,-0.88,0.07,0.19,0.00,155.81,-68.25,232.87,-0.25,-2.62,-1.31,5,3
1772644890.557580,998585,0.15,0.17,-0.10,179.62,-87.69,84.44,-2.12,-2.44,-1.87,0.00,0.17,0.00,155.75,-68.31,232.87,-0.37,0.13,-0.44,6,4
1772644890.596925,998624,0.17,0.21,-0.03,179.50,-87.75,84.44,-0.19,-1.62,-4.50,0.11,0.21,-0.03,155.87,-68.31,232.75,-1.75,-0.62,1.50,6,4
1772644890.636004,998663,0.11,0.02,-0.07,179.31,-87.75,84.69,2.37,-0.62,-5.75,0.12,0.05,0.07,156.00,-68.31,232.69,1.12,3.75,-1.44,6,4
1772644890.677888,998705,0.25,-0.10,-0.17,179.12,-87.69,85.00,4.12,-0.62,-3.19,0.09,-0.06,0.05,155.87,-68.06,232.94,1.31,2.62,-0.75,6,5
1772644890.718162,998745,0.07,-0.22,-0.03,179.06,-87.69,85.25,2.75,-1.75,-0.31,0.09,-0.02,0.08,155.94,-68.06,232.94,0.19,-2.25,1.94,6,5
1772644890.758159,998786,0.05,-0.17,-0.01,179.06,-87.69,85.31,0.06,-0.56,1.31,0.09,0.03,0.11,156.06,-68.12,232.87,-0.06,0.75,0.50,6,5
1772644890.798230,998826,0.12,-0.11,-0.07,179.06,-87.69,85.25,-2.56,1.81,1.62,0.10,0.07,0.03,156.00,-68.06,232.94,-0.69,-0.50,-0.50,4,3
1772644890.837499,998865,0.18,0.01,-0.09,179.12,-87.62,85.06,-4.44,1.44,0.69,0.08,0.06,0.01,156.00,-68.12,232.87,-0.75,-1.37,-0.50,4,3
1772644890.878730,998906,0.23,0.08,-0.09,179.12,-87.56,84.87,-4.25,-0.44,0.50,0.13,0.07,-0.02,155.94,-68.12,232.87,0.25,1.31,-1.69,4,3
1772644890.918858,998946,0.26,0.15,-0.14,179.12,-87.62,84.69,-2.31,-1.87,0.62,0.18,0.04,-0.05,155.87,-68.06,232.94,0.19,0.50,-0.62,3,3
1772644890.958811,998986,0.26,0.16,-0.10,179.19,-87.69,84.62,0.31,-4.62,0.13,0.12,0.07,-0.05,155.87,-68.06,232.94,0.31,-1.00,0.62,2,3
1772644890.998898,999026,0.17,0.08,-0.06,179.19,-87.87,84.62,2.06,-6.12,-0.37,0.09,0.07,0.00,155.94,-68.06,232.87,0.69,-0.37,0.75,2,3
1772644891.038167,999066,0.13,0.13,-0.04,179.19,-88.12,84.75,3.50,-6.25,-0.94,0.08,0.04,0.05,156.06,-68.19,232.81,0.37,-7.25,7.56,2,3
1772644891.079134,999107,0.18,0.06,-0.07,179.19,-88.31,84.94,5.69,-6.56,-0.62,0.10,0.04,0.02,156.50,-68.56,232.44,1.06,-3.31,4.56,2,2
1772644891.119436,999147,0.14,0.03,-0.05,179.19,-88.56,85.19,7.44,-8.69,0.81,0.13,0.06,0.04,156.62,-68.56,232.50,3.31,4.00,-1.06,2,2
1772644891.159429,999187,0.05,0.00,-0.04,179.19,-88.81,85.44,8.25,-8.00,1.75,0.13,0.03,0.00,156.62,-68.50,232.56,0.44,-2.12,3.75,2,2
1772644891.198611,999226,0.00,-0.04,0.03,179.25,-89.06,85.69,7.44,-5.62,1.31,0.07,0.04,0.03,156.87,-68.62,232.44,0.88,0.37,1.37,2,2
1772644891.237982,999265,0.03,-0.07,0.00,179.31,-89.19,85.87,5.19,-3.06,0.19,0.16,0.00,-0.04,156.87,-68.56,232.56,1.87,2.00,-1.25,2,2
1772644891.280055,999307,0.08,-0.13,0.02,179.31,-89.25,86.06,1.62,-2.62,-0.31,0.12,-0.01,-0.07,156.87,-68.56,232.62,-0.94,-2.19,1.06,2,2
1772644891.320269,999347,0.08,-0.11,0.05,179.25,-89.25,86.06,-1.37,-1.37,-0.56,0.27,-0.03,0.05,156.87,-68.62,232.56,-0.75,0.88,-1.06,2,2
1772644891.360284,999388,0.10,0.02,0.05,179.25,-89.25,86.00,-2.75,-1.37,1.00,0.11,0.06,-0.04,156.81,-68.56,232.56,-1.31,-1.19,-0.25,3,2
1772644891.399514,999427,0.03,0.14,0.05,179.31,-89.31,85.87,-2.37,-0.37,0.13,0.07,0.08,-0.01,156.87,-68.62,232.44,-1.12,-0.06,0.69,4,2
1772644891.440009,999467,0.04,0.10,0.09,179.31,-89.31,85.75,-1.50,0.37,-1.25,0.25,0.03,-0.04,156.94,-68.62,232.44,0.69,-0.13,-0.31,4,1
1772644891.480610,999508,0.12,0.06,0.07,179.25,-89.25,85.75,-0.44,2.00,-0.81,0.09,0.10,0.00,156.94,-68.69,232.44,0.13,-1.31,0.56,5,2
1772644891.520541,999548,0.03,0.00,0.07,179.25,-89.25,85.81,0.69,2.56,-0.56,0.18,0.02,0.04,156.87,-68.69,232.44,0.81,0.44,-0.50,5,2
1772644891.560674,999588,0.05,-0.03,0.01,179.25,-89.19,85.81,0.37,4.31,0.44,0.05,0.00,0.00,156.87,-68.69,232.44,-0.44,-0.75,0.06,5,2
1772644891.600671,999628,0.16,0.00,-0.08,179.25,-89.12,85.81,-0.19,4.44,0.50,0.11,0.00,0.00,156.81,-68.75,232.44,0.00,-0.69,0.37,5,2
1772644891.640963,999668,0.21,-0.04,-0.11,179.25,-89.00,85.81,-1.56,3.81,0.13,0.12,0.02,0.00,156.81,-68.75,232.44,-0.88,-0.56,0.44,5,2
1772644891.681719,999709,0.14,-0.03,-0.08,179.25,-88.87,85.69,-2.62,2.56,0.06,0.14,0.04,0.00,156.81,-68.75,232.37,-0.69,-0.62,-0.62,4,2
1772644891.721606,999749,0.16,0.06,-0.07,179.25,-88.81,85.62,-3.00,1.94,0.44,0.11,0.09,-0.02,156.81,-68.75,232.37,0.69,-0.06,-0.19,4,2
1772644891.761538,999789,0.15,0.08,-0.11,179.25,-88.75,85.50,-1.31,2.44,0.19,0.12,0.06,-0.01,156.75,-68.75,232.44,0.50,0.19,0.56,3,2
1772644891.801436,999829,0.11,0.08,-0.05,179.25,-88.69,85.50,-0.25,2.56,0.37,0.06,0.05,0.01,156.87,-68.75,232.37,0.06,-0.13,0.50,2,2
1772644891.841593,999869,0.13,0.04,-0.06,179.25,-88.62,85.50,0.31,2.50,-0.75,0.17,0.08,-0.01,156.87,-68.75,232.37,-0.25,0.37,0.00,2,2
1772644891.882159,999910,0.22,-0.01,-0.06,179.25,-88.50,85.50,0.44,2.12,-1.00,0.15,0.03,-0.04,156.87,-68.75,232.37,0.13,0.06,0.44,2,2
1772644891.922185,999950,0.17,0.00,-0.08,179.25,-88.44,85.56,-0.06,0.62,-0.31,0.14,0.01,0.01,156.81,-68.75,232.37,0.19,0.19,-0.44,1,2
1772644891.962257,999990,0.17,0.01,-0.10,179.25,-88.44,85.56,0.06,0.44,0.31,0.07,0.03,0.00,156.81,-68.75,232.37,-0.13,-0.13,-0.37,2,2
1772644892.002121,1000030,0.16,0.00,-0.06,179.25,-88.44,85.56,-0.13,0.31,0.50,0.15,0.02,0.00,156.81,-68.75,232.37,0.00,0.75,-0.75,2,2
1772644892.042659,1000070,0.21,0.00,-0.07,179.25,-88.44,85.50,-0.62,-0.69,0.94,0.11,0.02,-0.01,156.75,-68.75,232.44,0.25,-0.19,-0.44,3,3
1772644892.082953,1000110,0.17,0.03,-0.04,179.31,-88.50,85.44,-0.44,-2.06,0.94,0.18,0.00,-0.01,156.75,-68.75,232.44,0.37,0.37,-0.44,3,3
1772644892.122953,1000150,0.11,0.04,-0.03,179.31,-88.62,85.37,-0.44,-2.31,1.56,0.00,0.02,-0.05,156.75,-68.75,232.44,0.06,-0.81,0.25,3,3
1772644892.162965,1000190,0.10,0.01,-0.07,179.37,-88.69,85.37,-0.37,-2.19,0.94,0.16,0.08,0.01,156.75,-68.75,232.44,-0.25,1.12,-1.25,4,3
1772644892.202963,1000230,0.06,0.04,-0.04,179.44,-88.81,85.31,-1.94,-1.87,0.88,0.09,0.13,-0.05,156.69,-68.75,232.44,0.13,0.06,0.19,4,3
1772644892.242439,1000270,0.06,0.07,-0.02,179.44,-88.87,85.19,-2.50,-1.44,-0.69,0.07,0.03,-0.06,156.75,-68.69,232.50,-0.44,1.44,-0.75,4,4
1772644892.283398,1000311,-0.10,-0.02,0.17,179.37,-88.87,85.12,-1.87,0.81,-1.37,0.11,0.03,0.01,156.69,-68.62,232.50,0.19,1.19,-1.12,4,4
1772644892.323275,1000351,0.04,0.00,0.12,179.37,-88.75,85.06,-1.81,4.94,0.75,0.17,0.02,0.00,156.62,-68.56,232.62,0.69,2.44,-0.94,5,4
1772644892.363698,1000391,0.11,0.01,0.03,179.44,-88.62,84.94,-2.00,4.94,1.50,0.17,0.01,-0.09,156.62,-68.44,232.69,0.06,1.69,-1.31,5,4
1772644892.403517,1000431,0.22,0.03,-0.02,179.50,-88.44,84.81,-2.06,4.87,1.94,0.23,-0.02,-0.12,156.56,-68.44,232.75,0.44,0.13,0.19,5,4
1772644892.443058,1000470,0.23,0.05,-0.06,179.56,-88.31,84.69,-2.19,1.94,1.37,0.23,-0.02,-0.07,156.56,-68.44,232.75,0.25,-1.37,0.31,3,3
1772644892.483950,1000511,0.15,0.11,-0.04,179.62,-88.31,84.50,-2.62,0.56,0.81,0.17,0.04,0.00,156.50,-68.50,232.69,-0.31,-1.81,1.44,4,3
1772644892.524264,1000552,0.16,0.09,-0.06,179.62,-88.25,84.44,-1.75,1.06,-0.25,0.06,0.04,0.00,156.50,-68.56,232.69,-1.00,-1.19,-0.62,4,3
1772644892.564318,1000592,0.19,0.10,-0.12,179.62,-88.25,84.37,-1.19,0.62,-0.25,0.14,0.04,-0.02,156.50,-68.56,232.62,0.19,-0.31,0.06,4,3
1772644892.604371,1000632,0.13,0.02,-0.08,179.62,-88.25,84.37,0.19,0.31,-1.00,0.09,0.07,0.01,156.50,-68.56,232.62,-0.06,-0.37,0.44,4,3
1772644892.644558,1000672,0.12,0.04,-0.10,179.62,-88.25,84.37,0.19,0.19,-0.69,0.12,0.05,0.06,156.56,-68.62,232.62,0.37,-0.62,1.12,3,3
1772644892.685145,1000713,0.08,0.00,-0.11,179.56,-88.25,84.44,0.13,0.00,-0.94,0.11,0.06,0.02,156.62,-68.62,232.56,0.19,-0.56,0.88,3,3
1772644892.725009,1000753,0.12,0.01,-0.12,179.56,-88.19,84.44,0.13,0.81,-0.81,0.09,0.05,0.00,156.69,-68.62,232.56,-0.13,-0.37,0.50,3,3
1772644892.765095,1000793,0.18,-0.03,-0.14,179.50,-88.19,84.50,0.13,0.69,-0.62,0.11,0.02,0.01,156.69,-68.62,232.50,0.31,0.75,0.19,3,3
1772644892.805662,1000833,0.22,-0.03,-0.13,179.50,-88.19,84.50,-0.37,-0.19,0.06,0.13,0.05,0.00,156.69,-68.62,232.56,-0.31,0.44,-0.13,3,3
1772644892.845604,1000873,0.22,0.00,-0.11,179.50,-88.19,84.44,-0.75,-1.19,0.25,0.13,0.02,0.00,156.69,-68.62,232.56,-0.13,0.62,-0.50,4,4
1772644892.886108,1000913,0.22,-0.01,-0.13,179.50,-88.25,84.44,-0.94,-2.25,0.69,0.14,0.04,-0.06,156.69,-68.62,232.56,-0.44,0.31,-0.88,5,6
1772644892.925995,1000953,0.14,-0.01,-0.01,179.56,-88.37,84.31,-1.00,-3.69,1.44,0.11,0.07,-0.07,156.62,-68.62,232.56,-0.31,0.44,-0.94,5,6
1772644892.965845,1000993,0.10,0.04,-0.02,179.56,-88.50,84.25,-0.88,-2.69,1.25,0.20,-0.01,0.05,156.56,-68.56,232.62,0.31,1.56,-0.25,5,5
1772644893.005148,1001033,0.07,0.02,0.03,179.62,-88.62,84.19,-0.75,-1.31,1.19,0.07,0.03,-0.02,156.50,-68.50,232.69,0.13,0.37,-1.56,5,5
1772644893.045654,1001073,0.13,0.12,0.00,179.69,-88.62,84.12,-0.62,-1.00,0.75,0.09,0.08,-0.05,156.44,-68.50,232.69,0.44,0.06,0.37,5,5
1772644893.086551,1001114,0.15,0.07,-0.01,179.69,-88.69,84.12,0.75,-1.44,-1.37,0.23,0.00,-0.03,156.50,-68.50,232.69,-0.06,-0.31,-0.25,6,5
1772644893.126627,1001154,0.18,0.05,-0.07,179.62,-88.75,84.19,1.81,-1.69,-0.25,0.11,0.07,-0.03,156.44,-68.50,232.69,-0.06,-1.37,0.19,6,6
1772644893.166612,1001194,0.23,0.06,-0.11,179.62,-88.81,84.25,2.44,-2.94,-0.13,0.16,0.04,-0.02,156.44,-68.56,232.69,0.00,-1.00,0.37,6,5
1772644893.206394,1001234,0.18,0.05,-0.14,179.62,-88.94,84.37,2.50,-3.31,-0.37,0.13,0.02,-0.05,156.37,-68.56,232.69,0.00,0.50,-0.31,6,5
1772644893.246376,1001274,0.24,0.14,-0.15,179.62,-89.06,84.50,2.75,-5.62,-0.56,0.16,0.04,0.02,156.37,-68.56,232.69,0.00,-0.62,0.37,6,4
1772644893.287122,1001315,0.13,0.09,-0.09,179.62,-89.31,84.62,4.00,-7.94,-0.88,0.10,0.08,0.00,156.37,-68.56,232.69,0.62,-0.31,-0.06,4,3
1772644893.326896,1001355,0.04,0.04,-0.05,179.62,-89.50,84.81,5.75,-6.37,-0.25,0.13,0.00,0.05,156.44,-68.56,232.69,0.31,-0.56,0.13,4,3
1772644893.367174,1001395,0.03,-0.01,-0.03,179.62,-89.56,85.00,5.25,-4.81,0.19,0.08,0.07,0.00,156.37,-68.56,232.69,-0.56,0.13,-0.37,4,3
1772644893.406745,1001435,0.00,-0.02,0.05,0.31,-89.62,85.19,3.37,-2.75,0.06,0.13,0.06,0.00,156.37,-68.56,232.69,1.00,0.69,0.37,4,3
1772644893.447290,1001475,0.03,-0.03,0.01,0.37,-89.56,85.31,0.62,-0.75,-1.12,0.18,0.00,-0.04,156.37,-68.50,232.81,0.81,0.75,-0.06,4,3
1772644893.488045,1001515,0.18,0.00,0.05,0.37,-89.50,85.37,-1.06,-0.44,-1.75,0.16,0.00,-0.05,156.37,-68.50,232.81,-1.19,-0.37,-0.44,4,2
1772644893.527884,1001555,0.04,0.00,0.09,0.44,-89.44,85.37,-1.81,-0.62,-1.25,0.11,0.08,-0.02,156.37,-68.56,232.75,-0.19,-0.37,1.06,4,2
1772644893.567608,1001595,0.02,0.09,0.02,0.50,-89.44,85.31,-1.62,0.75,-0.06,0.18,0.06,-0.02,156.50,-68.56,232.69,1.06,0.13,1.87,3,2
1772644893.606768,1001635,0.14,0.07,0.00,0.50,-89.44,85.25,0.00,2.25,-0.69,0.22,0.01,-0.03,156.62,-68.56,232.69,1.31,0.31,0.19,2,2
1772644893.647831,1001675,0.20,-0.02,0.00,0.50,-89.44,85.25,0.37,0.75,-0.44,0.20,0.03,-0.07,156.56,-68.56,232.69,0.19,-0.69,0.69,2,2
1772644893.688349,1001716,0.07,0.00,0.04,0.50,-89.44,85.25,-0.25,-0.37,0.00,0.10,0.03,0.00,156.62,-68.62,232.62,0.62,-0.94,1.31,4,3
1772644893.728121,1001756,-0.03,0.06,0.03,0.50,-89.44,85.25,0.62,1.25,0.13,0.09,0.04,0.03,156.75,-68.69,232.62,0.00,-0.44,1.00,4,4
1772644893.768751,1001796,0.05,-0.05,-0.04,179.44,-89.44,85.31,0.06,3.81,-0.75,0.09,0.10,0.02,156.75,-68.69,232.62,-0.50,-0.13,-0.44,4,3
1772644893.808450,1001836,0.10,-0.03,-0.11,179.44,-89.37,85.31,-1.00,4.31,-1.25,0.24,0.06,0.00,156.75,-68.69,232.62,-0.06,0.19,-0.44,3,3
1772644893.848473,1001876,0.19,-0.01,-0.10,179.37,-89.25,85.31,-1.31,3.69,-0.69,0.18,0.08,-0.07,156.69,-68.62,232.62,0.94,0.31,-0.31,3,4
1772644893.888976,1001917,0.18,0.03,-0.10,179.37,-89.19,85.31,-0.75,2.56,-0.81,0.14,0.03,-0.01,156.69,-68.62,232.69,-0.37,0.69,0.37,4,4
1772644893.929347,1001957,0.10,-0.08,-0.04,179.31,-89.06,85.31,-0.19,1.44,-1.62,0.15,0.04,0.01,156.69,-68.62,232.62,-0.81,-0.31,-0.44,4,4
1772644893.969353,1001997,0.12,-0.04,-0.06,179.25,-89.00,85.37,-0.81,2.06,-0.37,0.13,0.06,-0.01,156.75,-68.62,232.62,-0.44,-0.06,-0.56,5,5
1772644894.009170,1002037,0.17,-0.03,-0.05,179.25,-88.94,85.37,-0.50,2.44,0.06,0.14,0.03,-0.07,156.69,-68.62,232.69,-0.75,0.50,-0.94,5,5
1772644894.049068,1002077,0.23,-0.02,-0.06,179.25,-88.87,85.31,-1.25,1.56,0.56,0.10,0.04,-0.03,156.62,-68.56,232.69,-0.31,0.25,-0.69,5,5
1772644894.089756,1002117,0.13,0.01,-0.08,179.25,-88.81,85.25,-1.81,0.00,0.81,0.16,0.04,-0.03,156.50,-68.56,232.75,-0.44,0.81,-1.44,5,3
1772644894.129852,1002157,0.06,0.04,-0.05,179.31,-88.81,85.12,-2.19,0.75,0.37,0.11,0.01,-0.02,156.37,-68.50,232.81,-0.62,1.00,-1.00,5,3
1772644894.169905,1002197,0.11,0.03,-0.06,179.31,-88.81,85.06,-1.75,1.25,0.37,0.10,0.06,0.02,156.37,-68.50,232.75,-0.69,0.06,-0.88,5,3
1772644894.209337,1002237,0.10,0.02,-0.02,179.31,-88.75,85.00,-1.56,1.12,1.25,0.12,0.00,-0.04,156.31,-68.44,232.81,0.75,1.37,-0.37,5,3
1772644894.249579,1002277,0.14,0.04,-0.08,179.37,-88.75,84.87,-1.12,2.00,1.12,0.16,0.04,0.00,156.37,-68.37,232.81,-0.31,1.25,-0.56,5,3
1772644894.290681,1002318,0.16,0.04,-0.08,179.44,-88.69,84.81,-1.75,1.62,0.13,0.10,0.04,-0.06,156.44,-68.37,232.81,-0.44,0.88,-1.00,5,2
1772644894.330587,1002358,0.16,0.07,-0.10,179.44,-88.62,84.75,-2.12,1.06,-0.81,0.17,0.00,-0.04,156.37,-68.31,232.87,-0.13,1.50,-0.81,5,2
1772644894.370823,1002398,0.24,0.09,-0.13,179.37,-88.56,84.69,-0.88,0.19,-0.62,0.14,0.03,-0.08,156.37,-68.25,232.87,-0.81,0.69,-0.62,4,2
1772644894.410976,1002438,0.13,0.05,-0.09,179.37,-88.56,84.69,0.25,-0.94,-0.37,0.10,0.07,-0.03,156.37,-68.19,232.87,-0.56,0.94,-0.56,4,2
1772644894.450855,1002478,0.12,-0.01,-0.01,179.37,-88.62,84.69,0.25,-0.69,-0.13,0.10,0.06,-0.02,156.44,-68.19,232.87,0.31,1.25,-0.44,4,2
1772644894.491130,1002519,0.16,-0.01,-0.07,179.37,-88.62,84.69,-0.56,0.06,0.13,0.14,0.03,-0.02,156.44,-68.12,232.87,0.13,1.25,0.19,4,2
1772644894.531155,1002559,0.10,0.03,-0.04,179.37,-88.62,84.69,-1.19,-0.25,0.50,0.14,0.00,-0.03,156.50,-68.06,232.94,0.62,1.81,-0.37,5,3
1772644894.571339,1002599,0.15,0.00,-0.09,179.37,-88.62,84.62,-1.06,0.37,0.37,0.16,0.00,-0.02,156.56,-68.06,232.94,-0.25,0.75,-0.19,5,3
1772644894.611339,1002639,0.11,0.02,-0.07,179.37,-88.62,84.56,-1.81,0.00,0.56,0.13,0.05,-0.06,156.56,-68.00,232.94,-1.12,1.12,-1.12,5,3
1772644894.650537,1002678,0.12,0.01,-0.04,179.37,-88.62,84.50,-2.19,-0.25,0.25,0.26,0.02,0.00,156.50,-67.94,232.94,-1.31,0.19,-1.44,5,4
1772644894.691652,1002719,0.13,0.12,-0.08,179.37,-88.62,84.37,-2.75,0.00,0.37,0.14,0.13,-0.11,156.50,-67.94,232.94,-0.44,0.62,-0.31,5,4
1772644894.731888,1002759,0.14,0.13,-0.08,179.37,-88.62,84.31,-1.06,-0.19,-1.25,0.17,0.05,-0.10,156.56,-67.94,232.94,-1.12,1.44,-1.00,6,5
1772644894.772133,1002800,0.16,0.01,-0.06,179.31,-88.62,84.37,0.19,-0.94,-0.81,0.10,0.02,-0.09,156.44,-67.87,233.00,-0.13,-0.75,-0.44,6,4
1772644894.811685,1002839,0.22,0.05,-0.04,179.31,-88.62,84.37,1.37,-0.62,0.31,0.13,0.09,0.00,156.50,-67.94,232.94,0.13,-0.69,1.31,6,4
1772644894.851005,1002879,0.12,0.01,-0.05,179.31,-88.69,84.44,1.81,-0.69,0.19,0.18,0.05,0.03,156.56,-67.87,233.00,1.12,4.19,-1.56,5,4
1772644894.892133,1002920,0.10,0.07,-0.07,179.31,-88.69,84.50,1.44,-0.81,1.06,0.16,0.06,0.00,156.62,-67.75,233.06,-0.37,-0.44,1.06,5,5
1772644894.932341,1002960,0.14,-0.03,-0.08,179.31,-88.75,84.50,1.00,-0.88,0.06,0.12,0.05,-0.08,156.62,-67.75,233.00,-0.44,0.50,0.06,4,3
1772644894.972864,1003000,0.14,-0.01,-0.08,179.31,-88.75,84.56,-1.06,-1.37,-0.56,0.22,0.04,-0.05,156.69,-67.75,233.00,-0.69,-1.12,0.94,3,3
1772644895.012382,1003040,0.13,0.02,-0.03,179.31,-88.81,84.50,-2.06,-0.94,-0.25,0.09,0.09,-0.03,156.75,-67.87,232.87,-0.75,-1.69,0.56,3,2
1772644895.052552,1003080,0.14,0.07,-0.05,179.31,-88.81,84.37,-1.37,-0.19,-0.50,0.19,0.08,-0.03,156.69,-67.87,232.87,-0.37,0.37,-0.62,3,2
1772644895.093326,1003121,0.17,0.06,-0.09,179.31,-88.81,84.37,-0.44,0.19,-0.19,0.15,0.09,-0.09,156.69,-67.87,232.87,-0.69,-0.13,0.13,3,2
1772644895.133309,1003161,0.16,0.08,-0.13,179.31,-88.81,84.37,0.50,-0.81,-0.19,0.12,0.06,-0.04,156.62,-67.87,232.87,-0.13,-0.56,0.00,3,1
1772644895.173513,1003201,0.16,0.08,-0.07,179.31,-88.87,84.37,1.37,-1.37,-0.81,0.08,0.05,-0.16,156.62,-67.87,232.87,-0.69,-2.37,2.19,2,1
1772644895.212751,1003240,0.14,0.08,-0.05,179.31,-88.87,84.50,2.62,-1.62,-1.19,0.24,0.12,0.01,156.87,-68.12,232.62,-0.06,-3.81,3.75,2,1
1772644895.251957,1003280,0.11,0.00,-0.02,179.25,-88.94,84.62,2.62,-1.75,-0.37,0.09,0.04,0.00,156.94,-68.12,232.62,0.62,2.56,-1.62,2,1
1772644895.293605,1003321,0.11,-0.08,-0.03,179.25,-88.94,84.75,1.50,-1.87,0.06,0.12,0.00,-0.02,156.87,-68.12,232.69,-0.19,-1.62,-0.13,2,2
1772644895.333744,1003361,0.10,-0.08,-0.01,179.25,-89.00,84.75,-0.13,-1.19,0.37,0.17,0.00,0.00,156.87,-68.12,232.69,0.00,0.75,-1.37,3,2
1772644895.374307,1003401,0.09,-0.02,-0.08,179.25,-89.06,84.69,-2.06,-0.81,1.31,0.11,0.04,-0.09,156.75,-68.06,232.75,-0.81,-0.44,-1.44,3,2
1772644895.413102,1003441,0.17,0.13,-0.10,179.31,-89.12,84.56,-2.62,-1.12,1.19,0.00,0.03,-0.11,156.62,-68.12,232.75,0.19,-2.00,1.69,3,2
1772644895.452654,1003480,0.23,0.27,-0.10,179.37,-89.19,84.44,-0.81,-2.75,0.62,0.16,0.16,-0.10,156.69,-68.12,232.75,2.62,3.37,-0.31,3,3
1772644895.494109,1003522,0.14,0.33,-0.12,179.50,-89.31,84.37,4.06,-3.25,-1.00,0.22,0.04,-0.07,156.81,-68.00,232.87,2.87,3.25,1.31,3,3
1772644895.534648,1003562,0.14,-0.01,-0.07,179.44,-89.37,84.56,6.50,-3.31,-2.25,0.23,-0.07,-0.03,156.87,-67.94,233.00,1.62,-0.69,0.00,4,4
1772644895.574912,1003602,0.16,-0.19,-0.04,179.37,-89.37,84.87,5.12,-3.12,-1.06,0.16,-0.02,-0.02,156.81,-68.00,233.00,-0.19,-1.56,0.00,4,4
1772644895.614779,1003642,0.19,0.00,-0.05,179.37,-89.37,85.06,2.81,-3.69,-0.19,0.15,-0.02,-0.01,156.75,-68.00,233.00,-0.75,-0.13,-0.56,5,4
1772644895.653940,1003681,0.15,0.01,-0.05,0.56,-89.31,85.19,2.94,-4.75,0.62,0.09,0.05,-0.07,156.75,-68.06,232.94,-1.19,-1.31,-0.31,5,4
1772644895.694762,1003722,0.00,0.00,0.01,0.56,-89.31,85.25,2.87,-5.31,0.62,0.19,0.02,-0.04,156.81,-68.06,232.87,0.44,-0.75,1.00,4,3
1772644895.734934,1003763,0.09,0.04,0.00,0.50,-89.25,85.31,1.75,-3.25,0.69,0.19,0.12,-0.07,156.94,-68.12,232.81,0.81,-1.12,2.37,3,3
1772644895.775247,1003803,0.12,0.06,0.00,0.50,-89.12,85.37,1.56,-3.19,-1.06,0.15,0.14,-0.09,157.12,-68.19,232.75,2.50,-0.69,3.50,3,3
1772644895.814424,1003842,0.15,0.03,-0.02,0.56,-89.06,85.50,2.69,-2.81,-0.31,0.19,0.03,-0.08,157.37,-68.25,232.81,5.00,0.31,4.12,3,3
1772644895.853231,1003881,0.12,0.06,0.01,0.50,-88.94,85.62,4.56,-2.50,1.50,0.10,0.04,-0.03,157.56,-68.31,232.94,7.37,-1.81,4.87,3,3
1772644895.895366,1003923,0.05,-0.03,0.05,0.50,-88.87,85.75,5.69,-2.37,1.06,0.17,-0.04,-0.03,157.56,-68.37,233.19,4.50,0.81,2.19,3,2
1772644895.935688,1003963,0.03,-0.17,0.03,0.44,-88.87,85.94,4.37,-1.81,0.94,0.05,-0.02,0.03,157.56,-68.44,233.31,2.50,-1.81,0.69,3,2
1772644895.975840,1004004,-0.08,-0.23,0.02,0.44,-88.81,86.06,1.37,0.06,0.88,0.20,0.04,0.01,157.37,-68.44,233.44,-0.37,-0.56,-2.06,3,2
1772644896.015297,1004043,0.05,-0.25,0.00,0.44,-88.81,86.06,-3.00,3.50,1.31,0.10,0.11,-0.02,157.19,-68.44,233.50,-0.62,-0.50,-3.31,2,2
1772644896.054269,1004082,0.15,-0.03,-0.04,0.37,-89.00,85.81,-6.44,3.62,2.69,0.14,0.10,-0.07,157.00,-68.37,233.56,1.94,-0.56,-0.56,2,2
1772644896.096002,1004124,0.18,0.20,-0.05,0.31,-89.12,85.50,-5.25,1.81,2.06,0.09,0.08,-0.02,156.87,-68.37,233.75,0.25,-1.12,0.37,4,4
1772644896.136276,1004164,0.00,0.18,0.00,0.25,-89.25,85.25,-1.94,2.44,0.00,0.10,0.00,0.06,156.94,-68.44,233.69,-1.12,-1.25,-0.56,4,4
1772644896.176825,1004204,0.01,-0.03,-0.05,0.25,-89.31,85.25,-0.25,3.81,-1.37,0.13,0.10,0.03,156.87,-68.44,233.62,-3.06,-0.88,-1.94,4,4
1772644896.216019,1004243,0.09,-0.12,-0.10,0.31,-89.44,85.31,-0.94,5.06,-1.12,0.23,0.01,0.00,156.81,-68.44,233.50,-2.19,-0.50,-2.00,5,4
1772644896.256088,1004284,0.20,-0.06,-0.12,0.31,-89.56,85.25,-3.25,5.31,0.69,0.12,0.00,-0.04,156.69,-68.44,233.44,-0.75,0.00,-0.62,5,5
1772644896.296959,1004324,0.25,0.17,-0.13,179.62,-89.62,85.06,-3.37,4.31,1.75,0.16,-0.03,-0.08,156.69,-68.37,233.44,-2.25,0.81,-1.50,6,5
1772644896.337146,1004365,0.22,0.08,-0.07,179.69,-89.62,84.94,-2.25,1.56,0.44,0.14,0.00,-0.03,156.62,-68.31,233.37,-2.69,-0.31,-2.75,6,5
1772644896.377477,1004405,0.18,0.15,-0.09,179.75,-89.62,84.81,-1.44,0.25,1.06,0.17,-0.02,-0.04,156.50,-68.25,233.37,-1.06,0.56,-1.62,6,5
1772644896.417283,1004445,0.15,0.11,-0.04,179.75,-89.69,84.75,-0.25,-0.06,0.13,0.13,0.04,0.02,156.44,-68.25,233.31,-3.87,-0.31,-2.12,6,5
1772644896.456769,1004484,0.02,0.01,-0.01,179.75,-89.62,84.75,-1.06,0.31,-1.44,0.17,0.08,-0.06,156.37,-68.19,233.19,-3.31,-0.94,-2.12,6,6
1772644896.497806,1004525,0.13,-0.01,-0.01,179.69,-89.62,84.75,-3.44,0.69,-1.37,0.17,0.00,-0.01,156.37,-68.25,233.06,-0.13,-1.12,0.88,5,3
1772644896.537527,1004565,0.12,0.06,-0.04,179.69,-89.56,84.62,-3.75,0.81,0.25,0.19,0.03,-0.05,156.37,-68.25,233.12,1.94,0.19,1.37,5,3
1772644896.577912,1004606,0.13,0.08,-0.05,179.69,-89.56,84.50,-1.56,0.56,0.75,0.13,0.00,-0.03,156.44,-68.31,233.12,2.00,-0.81,1.31,5,3
1772644896.616795,1004645,0.16,0.09,-0.07,179.75,-89.56,84.37,0.75,0.06,1.87,0.18,0.01,0.01,156.44,-68.31,233.25,2.00,1.00,0.37,4,3
1772644896.657187,1004685,0.13,0.09,-0.04,179.81,-89.62,84.37,1.44,0.13,1.69,0.13,0.02,-0.04,156.44,-68.31,233.31,-0.19,0.19,0.44,4,3
1772644896.698489,1004726,0.13,0.04,-0.07,179.87,-89.62,84.37,0.50,0.44,-0.75,0.14,0.09,-0.07,156.50,-68.31,233.25,-1.37,0.25,-0.75,3,2
1772644896.738550,1004766,0.16,0.06,-0.06,179.81,-89.56,84.44,-0.62,-0.06,-2.37,0.12,0.11,-0.06,156.50,-68.31,233.19,-1.06,-0.31,0.25,3,2
1772644896.778449,1004806,0.13,0.06,-0.06,179.69,-89.56,84.50,-0.37,-0.81,-3.31,0.16,0.07,-0.06,156.50,-68.31,233.19,0.44,0.37,0.94,2,2
1772644896.817637,1004845,0.08,0.00,-0.03,179.62,-89.50,84.62,1.31,-0.69,-2.75,0.10,0.05,0.02,156.62,-68.31,233.12,0.06,-0.69,1.62,2,1
1772644896.858074,1004886,0.03,-0.06,0.00,179.50,-89.44,84.75,1.75,-0.37,-2.12,0.08,0.03,0.02,156.69,-68.37,233.06,-0.50,-0.13,0.62,2,1
1772644896.899265,1004927,0.08,-0.09,-0.05,179.44,-89.31,84.94,1.00,2.12,-1.62,0.11,0.04,-0.01,156.75,-68.37,233.06,-0.56,0.00,0.19,2,1
1772644896.939150,1004967,0.26,-0.09,-0.10,179.37,-89.25,85.00,-0.62,1.87,-1.00,0.15,0.01,0.00,156.75,-68.37,233.06,-1.25,-0.37,-1.00,4,3
1772644896.979541,1005007,0.23,0.06,-0.09,179.31,-89.19,85.00,-1.62,0.06,-0.19,0.19,0.03,-0.06,156.69,-68.31,233.00,-1.62,0.06,-1.50,4,3
1772644897.018728,1005046,0.09,-0.04,-0.06,179.31,-89.19,84.94,-1.69,-0.75,-1.81,0.05,0.07,-0.11,156.56,-68.31,233.00,-4.31,-0.69,-3.19,4,3
1772644897.057770,1005085,0.10,-0.13,-0.07,179.25,-89.06,84.94,-3.12,0.13,-1.69,0.21,0.10,-0.04,156.44,-68.31,232.87,-2.31,-1.12,-1.94,4,3
1772644897.099359,1005127,0.13,0.11,-0.09,179.19,-89.06,84.81,-4.25,0.06,0.06,0.16,0.12,-0.08,156.31,-68.31,232.87,0.44,0.50,-0.94,4,4
1772644897.140073,1005167,0.26,0.26,-0.06,179.19,-89.06,84.69,-1.81,-0.75,-1.75,0.17,0.14,-0.04,156.19,-68.25,232.94,-0.62,-0.62,-2.37,5,4
1772644897.179818,1005208,0.15,0.05,-0.03,179.19,-89.06,84.69,1.12,-2.31,-2.50,0.11,0.01,-0.02,156.06,-68.25,233.00,1.69,1.19,0.31,5,4
1772644897.218866,1005247,0.08,0.00,0.00,179.12,-89.00,84.81,3.06,-1.94,-0.81,0.17,0.02,0.02,156.06,-68.19,233.06,0.50,0.06,0.25,5,5
1772644897.259294,1005287,0.10,-0.10,0.00,179.06,-89.00,85.00,2.94,-1.06,-0.62,0.08,0.04,0.05,156.12,-68.25,233.06,0.25,-0.19,1.25,6,5
1772644897.300591,1005328,0.01,-0.16,0.00,179.06,-89.00,85.12,-0.06,-0.44,-0.75,0.18,0.01,0.03,156.19,-68.25,233.06,-0.62,0.88,-0.62,6,5
1772644897.340554,1005368,0.15,-0.14,-0.07,179.00,-88.94,85.12,-2.81,0.75,0.62,0.08,0.09,0.01,156.19,-68.25,233.00,-0.13,-1.00,0.81,4,3
1772644897.380421,1005408,0.18,0.15,-0.04,179.06,-89.00,84.94,-2.62,-0.25,0.88,0.16,0.08,-0.08,156.25,-68.25,233.00,1.50,0.06,0.75,4,3
1772644897.420228,1005448,0.15,0.17,-0.03,179.06,-89.00,84.87,0.06,-0.81,0.56,0.14,0.06,-0.05,156.31,-68.31,233.00,1.69,0.31,1.31,4,3
1772644897.459714,1005488,0.16,0.11,-0.02,179.06,-89.06,84.87,2.37,-1.12,0.13,0.18,0.07,-0.05,156.31,-68.31,233.06,1.56,-0.37,1.12,4,3
1772644897.501096,1005529,0.11,-0.06,-0.03,179.06,-89.06,85.00,2.56,-1.00,-0.44,0.11,0.09,-0.07,156.37,-68.31,233.06,0.56,-0.13,0.62,3,3
1772644897.541167,1005569,0.15,-0.01,-0.02,179.06,-89.06,85.06,0.81,-0.81,-1.19,0.14,0.09,-0.04,156.44,-68.31,233.06,0.56,-0.37,0.81,3,2
1772644897.581497,1005609,0.06,-0.02,0.00,179.00,-89.00,85.12,0.37,-0.94,-1.50,0.13,0.07,-0.04,156.44,-68.31,233.06,-0.06,-0.25,0.13,3,2
1772644897.621161,1005649,-0.04,-0.01,0.08,178.94,-88.94,85.19,0.94,0.62,-0.94,0.10,0.09,0.01,156.44,-68.31,233.06,0.13,0.00,0.25,2,1
1772644897.661128,1005689,0.05,-0.05,0.06,178.94,-88.94,85.25,1.81,2.62,-0.25,0.15,0.01,-0.01,156.44,-68.31,233.06,0.31,0.75,-0.56,2,1
1772644897.701834,1005730,0.06,-0.08,0.01,178.94,-88.87,85.37,1.44,3.81,0.37,0.15,0.05,-0.02,156.44,-68.31,233.06,-0.75,-0.50,-0.44,2,1
1772644897.741676,1005769,0.19,-0.04,-0.06,178.94,-88.87,85.37,-0.19,2.62,0.56,0.21,0.06,-0.08,156.44,-68.31,233.06,0.00,-0.69,0.00,3,3
1772644897.782224,1005810,0.16,0.02,-0.02,178.94,-88.81,85.37,-0.25,2.19,0.56,0.22,0.00,-0.11,156.44,-68.37,233.00,-0.56,-0.44,-0.19,3,3
1772644897.821247,1005849,0.19,-0.01,-0.03,179.00,-88.81,85.37,0.06,1.12,0.94,0.10,0.08,-0.06,156.44,-68.37,233.00,-1.12,-1.44,0.25,3,4
1772644897.861879,1005890,0.02,0.02,0.00,179.00,-88.81,85.31,-0.56,0.94,1.25,0.22,0.06,0.11,156.37,-68.44,232.94,0.06,-0.75,-0.19,3,4
1772644897.902431,1005930,0.00,0.08,0.02,179.06,-88.81,85.25,-1.19,2.37,1.12,0.07,0.10,0.03,156.37,-68.44,232.94,0.00,-1.00,0.19,4,3
1772644897.942577,1005970,0.07,0.15,0.00,179.12,-88.75,85.19,-1.06,3.00,-0.44,0.03,0.11,-0.03,156.37,-68.44,232.94,-0.75,1.00,0.19,5,4
1772644897.982554,1006010,0.00,0.05,0.05,179.06,-88.69,85.19,0.56,4.31,-1.87,0.19,0.05,0.00,156.37,-68.37,232.94,-0.37,0.75,-1.69,4,4
1772644898.022591,1006050,0.01,-0.02,0.09,179.00,-88.50,85.31,1.25,5.75,-1.44,0.10,0.06,-0.05,156.31,-68.37,233.00,-0.25,0.19,-0.75,5,4
1772644898.062007,1006090,0.05,-0.05,0.04,178.94,-88.25,85.37,1.44,8.00,-0.94,0.20,-0.01,-0.07,156.19,-68.31,233.00,-0.81,0.69,-2.06,5,4
1772644898.103242,1006131,0.17,-0.10,-0.02,178.94,-88.00,85.50,0.56,7.94,0.50,0.12,0.02,-0.07,156.12,-68.31,233.00,-1.31,-0.62,0.06,5,4
1772644898.143276,1006171,0.25,-0.03,-0.10,178.94,-87.69,85.50,-0.69,6.87,0.62,0.23,0.03,-0.09,156.12,-68.31,233.00,-0.31,0.56,-0.44,4,3
1772644898.183566,1006211,0.26,-0.01,-0.12,178.94,-87.50,85.37,-1.94,4.56,0.94,0.18,0.04,-0.07,156.19,-68.31,232.94,-1.12,-0.75,0.25,4,3
1772644898.223319,1006251,0.22,0.04,-0.15,179.00,-87.37,85.31,-1.81,2.62,0.56,0.12,0.03,-0.06,156.12,-68.31,232.87,-0.69,0.56,-0.81,4,2
1772644898.263254,1006291,0.17,0.06,-0.09,179.00,-87.31,85.19,-1.31,1.31,1.19,0.03,0.07,-0.03,156.19,-68.31,232.87,-0.69,-0.50,0.25,4,3
1772644898.303887,1006332,0.18,0.09,-0.09,179.06,-87.25,85.12,-1.00,0.81,1.00,0.13,0.13,0.05,156.19,-68.31,232.81,-0.56,1.12,-0.31,4,3
1772644898.343885,1006372,0.09,0.07,-0.09,179.06,-87.25,85.06,-0.81,2.06,0.13,0.05,0.06,-0.01,156.25,-68.25,232.81,0.06,1.56,-0.25,3,3
1772644898.384036,1006412,0.18,0.03,-0.15,179.06,-87.12,85.06,-0.25,2.00,-0.94,0.11,0.05,-0.03,156.31,-68.25,232.81,-1.00,1.31,0.37,3,3
1772644898.423945,1006452,0.15,-0.02,-0.14,179.00,-87.06,85.12,-0.19,0.44,-1.75,0.10,0.07,0.01,156.37,-68.19,232.81,0.25,0.88,-0.06,2,2
1772644898.464226,1006492,0.19,-0.06,-0.10,178.94,-87.06,85.19,-0.69,0.19,-1.44,0.17,0.07,-0.02,156.44,-68.12,232.81,-0.44,0.94,-0.25,2,2
1772644898.504952,1006532,0.25,-0.07,-0.04,178.94,-87.00,85.19,-1.19,-0.19,-0.31,0.18,0.09,-0.05,156.44,-68.12,232.81,-0.94,0.62,-0.69,2,2
1772644898.544766,1006572,0.23,0.00,-0.07,178.94,-87.00,85.12,-1.75,-0.81,0.50,0.12,0.05,-0.04,156.50,-68.06,232.75,-0.62,1.25,-0.69,3,2
1772644898.584971,1006612,0.14,0.00,-0.03,178.94,-87.06,85.06,-2.00,-1.19,0.69,0.15,0.03,-0.07,156.50,-68.00,232.75,-1.00,1.44,-0.56,5,4
1772644898.624616,1006652,0.14,0.06,-0.02,178.94,-87.12,84.94,-1.87,-1.94,0.81,0.19,0.03,-0.06,156.56,-67.94,232.75,0.06,1.19,-0.44,6,6
1772644898.664645,1006692,0.13,0.06,0.02,179.00,-87.25,84.81,-1.44,-2.19,0.44,0.21,0.08,0.00,156.56,-67.94,232.81,-0.69,0.06,-0.81,6,5
1772644898.705352,1006733,0.05,0.00,0.04,179.00,-87.31,84.75,-1.31,-1.44,0.37,0.22,0.06,0.08,156.50,-67.94,232.75,0.00,-0.31,-0.31,6,5
1772644898.745618,1006773,0.06,0.03,-0.03,179.00,-87.31,84.69,-1.81,1.06,0.88,0.09,0.12,-0.03,156.50,-67.87,232.81,-1.37,0.44,-1.62,6,5
1772644898.785583,1006813,0.11,0.08,-0.08,179.00,-87.31,84.62,-2.06,1.87,-0.13,0.09,0.07,-0.12,156.44,-67.81,232.75,-0.75,1.06,-1.00,6,5
1772644898.825008,1006852,0.23,-0.01,-0.09,179.00,-87.19,84.56,-1.81,1.06,-0.81,0.22,-0.01,-0.04,156.37,-67.75,232.81,1.06,1.25,-2.06,7,6
1772644898.865211,1006893,0.20,0.03,-0.05,179.00,-87.19,84.50,-1.12,-0.25,1.31,0.16,0.03,-0.06,156.25,-67.75,232.94,0.19,-0.06,-0.06,7,6
1772644898.906137,1006934,0.18,0.02,-0.07,179.06,-87.19,84.44,-0.75,-0.69,1.44,0.14,0.08,-0.03,156.25,-67.75,232.94,-0.44,0.25,-0.56,7,6
1772644898.946257,1006974,0.14,0.03,-0.05,179.12,-87.25,84.31,-1.37,-0.75,1.00,0.16,0.07,-0.07,156.19,-67.69,233.00,0.37,0.81,-0.44,7,6
1772644898.986205,1007014,0.09,0.06,-0.05,179.19,-87.31,84.25,-1.69,-1.12,0.50,0.10,0.02,0.01,156.19,-67.69,233.00,-0.44,-0.44,0.06,5,4
1772644899.025987,1007054,0.08,0.03,-0.04,179.19,-87.37,84.19,-1.62,-0.88,0.94,0.12,0.10,-0.02,156.19,-67.69,233.00,-1.12,0.50,-1.19,4,3
1772644899.066056,1007094,0.13,0.01,-0.08,179.19,-87.37,84.06,-1.87,0.00,0.31,0.21,0.08,-0.04,156.06,-67.62,233.00,-0.81,-0.56,-1.81,4,3
1772644899.107023,1007135,0.24,0.07,-0.06,179.19,-87.37,84.00,-2.37,-1.00,0.81,0.11,0.08,-0.08,155.94,-67.62,233.00,-0.37,-1.12,-0.25,4,3
1772644899.146648,1007175,0.14,0.12,-0.05,179.25,-87.44,83.87,-2.25,-2.31,1.00,0.08,0.14,0.00,155.94,-67.69,233.00,0.19,0.19,0.06,4,3
1772644899.187210,1007215,0.12,0.09,-0.07,179.25,-87.50,83.75,-0.75,-1.06,0.31,0.11,0.12,-0.02,155.94,-67.69,233.00,-0.25,0.06,0.06,4,3
1772644899.227227,1007255,0.18,0.01,-0.07,179.25,-87.56,83.75,-0.06,-0.81,0.00,0.12,0.08,-0.03,155.94,-67.69,233.00,-0.25,0.44,-0.06,3,2
1772644899.266940,1007295,0.16,0.00,-0.07,179.25,-87.56,83.75,-0.56,-2.06,0.31,0.14,0.05,-0.04,155.94,-67.62,233.00,-0.06,0.69,-0.62,3,2
1772644899.307669,1007335,0.11,0.01,-0.03,179.25,-87.69,83.75,-0.94,-2.37,0.62,0.14,0.07,-0.02,155.87,-67.62,233.06,-0.19,-0.44,-1.25,3,2
1772644899.347653,1007375,0.12,0.00,-0.01,179.31,-87.75,83.69,-1.25,-1.37,0.94,0.07,0.07,-0.01,155.75,-67.62,233.12,-0.13,0.31,-1.37,3,2
1772644899.387603,1007415,0.05,0.03,0.03,179.37,-87.81,83.56,-1.37,-1.00,1.81,0.13,0.07,-0.08,155.62,-67.56,233.12,0.25,0.75,-1.37,4,3
1772644899.426783,1007455,0.07,0.05,0.01,179.44,-87.87,83.44,-0.75,0.37,1.69,0.13,0.06,0.00,155.56,-67.56,233.19,-0.31,0.31,-1.56,4,2
1772644899.466204,1007494,0.17,0.03,-0.05,179.50,-87.81,83.37,-0.75,1.25,1.75,0.17,0.09,-0.07,155.37,-67.50,233.31,-0.19,0.88,-1.87,4,2
1772644899.508071,1007536,0.27,0.06,-0.13,179.56,-87.81,83.25,-0.94,-0.69,1.56,0.22,0.05,-0.11,155.31,-67.50,233.37,0.19,-0.25,-1.31,4,2
1772644899.548074,1007576,0.32,0.22,-0.16,179.62,-87.87,83.12,0.00,-3.75,1.00,0.16,0.08,-0.08,155.25,-67.44,233.37,0.50,0.62,-0.13,5,3
1772644899.588391,1007616,0.20,0.17,-0.13,179.69,-88.06,83.12,1.62,-6.69,-0.56,0.14,0.05,-0.03,155.31,-67.44,233.37,-0.25,0.37,-0.69,5,3
1772644899.628231,1007656,0.11,0.09,-0.01,179.69,-88.31,83.19,3.25,-7.50,-0.62,0.12,0.04,0.00,155.31,-67.37,233.37,-0.06,-0.50,-0.25,5,3
1772644899.668307,1007696,0.08,0.13,-0.04,179.69,-88.62,83.31,4.50,-6.62,0.19,0.11,0.05,-0.03,155.25,-67.44,233.37,-0.31,0.00,-0.69,5,3
1772644899.708836,1007737,0.15,0.08,-0.08,179.69,-88.81,83.50,6.06,-7.00,0.75,0.12,0.02,-0.02,155.25,-67.44,233.44,0.06,-0.37,0.00,5,3
1772644899.748759,1007777,0.12,0.04,-0.10,179.75,-89.12,83.69,5.56,-7.56,1.06,0.08,0.03,-0.04,155.25,-67.44,233.37,0.13,-0.75,0.37,5,3
1772644899.789194,1007817,0.03,-0.01,-0.03,179.75,-89.37,83.87,4.25,-7.00,0.50,0.14,0.05,-0.04,155.25,-67.44,233.37,1.25,-0.44,0.06,5,3
1772644899.828738,1007857,0.06,0.03,0.00,179.75,-89.62,84.00,2.37,-5.50,0.06,0.13,0.06,-0.01,155.25,-67.44,233.44,0.37,-0.37,1.19,5,3
1772644899.868980,1007897,0.11,-0.01,-0.01,179.75,-89.75,84.06,0.88,-4.37,-0.56,0.13,0.01,-0.04,155.31,-67.44,233.44,1.19,0.13,0.31,5,3
1772644899.909393,1007937,0.07,0.04,0.04,0.19,-89.75,84.12,0.13,-4.75,0.37,0.15,0.02,-0.02,155.25,-67.44,233.50,0.56,0.13,0.25,5,3
1772644899.949474,1007977,0.04,0.00,0.06,0.19,-89.62,84.12,0.13,-3.62,0.06,0.12,0.03,-0.05,155.25,-67.44,233.50,-0.75,0.00,-0.06,4,3
1772644899.989574,1008017,0.10,0.02,0.03,0.19,-89.56,84.06,-0.88,-1.94,0.69,0.18,0.07,-0.08,155.31,-67.44,233.44,1.25,-0.19,1.50,3,3
1772644900.028819,1008057,0.17,0.15,0.02,0.13,-89.50,84.00,-0.94,-1.75,0.88,0.18,0.13,-0.13,155.50,-67.44,233.44,2.94,-0.50,3.75,4,3
1772644900.067793,1008096,0.13,0.10,0.04,0.13,-89.44,83.94,0.94,-2.56,0.88,0.24,0.03,-0.02,155.75,-67.50,233.56,8.13,-0.56,5.06,3,2
1772644900.109709,1008138,0.08,0.06,0.04,0.00,-89.31,83.94,2.00,-1.37,5.37,0.14,0.08,-0.25,155.81,-67.62,233.75,6.87,-2.19,5.56,2,2
1772644900.149983,1008178,0.05,0.24,0.01,-0.19,-89.25,83.81,4.69,-2.31,5.19,0.09,0.12,0.00,156.06,-67.81,233.94,15.31,-1.00,8.69,2,3
1772644900.190466,1008218,-0.02,0.00,0.01,-0.31,-89.12,83.87,6.69,-2.56,1.50,0.08,-0.01,0.08,156.00,-67.87,234.50,5.44,-0.94,0.69,2,3
1772644900.229496,1008257,0.00,-0.19,0.07,-0.37,-89.00,84.06,4.44,0.06,0.56,0.16,0.02,0.07,155.87,-67.94,234.56,1.06,-2.50,0.94,2,3
1772644900.268486,1008296,0.05,-0.13,0.00,-0.37,-89.06,84.19,0.50,3.06,1.94,0.12,0.06,-0.02,155.87,-68.00,234.62,2.69,0.19,1.25,2,3
1772644900.310755,1008338,0.17,0.00,-0.05,-0.44,-89.06,84.06,-2.75,2.06,4.06,0.22,0.03,-0.08,156.06,-68.06,234.62,-0.75,-2.31,5.62,3,3
1772644900.351043,1008379,0.20,0.40,-0.05,-0.62,-89.00,83.75,-2.44,-0.94,2.81,0.15,0.12,-0.19,156.56,-68.25,234.44,6.31,-0.75,7.12,3,3
1772644900.391114,1008419,-0.01,0.30,0.03,-0.69,-88.94,83.69,0.88,-1.94,-1.56,0.15,0.01,-0.08,156.87,-68.31,234.56,5.00,-0.56,4.12,3,3
1772644900.430165,1008458,-0.04,0.19,0.06,-0.62,-88.94,83.81,2.69,0.31,-5.25,0.08,0.05,-0.05,157.06,-68.37,234.56,3.50,-2.37,1.75,3,3
1772644900.469311,1008497,0.00,-0.07,0.08,-0.37,-89.06,84.12,3.50,0.50,-6.44,0.18,0.00,0.03,156.81,-68.44,234.81,3.06,-1.44,-1.37,4,4
1772644900.511585,1008539,-0.03,-0.30,0.07,-0.19,-89.19,84.50,1.31,2.81,-3.69,0.10,-0.05,0.10,156.62,-68.50,234.87,-3.44,-2.50,-0.88,4,4
1772644900.551976,1008579,0.07,-0.18,-0.03,-0.06,-89.44,84.62,-2.12,7.37,-0.37,-0.01,0.02,-0.01,156.56,-68.56,234.69,-5.50,-0.81,-3.44,4,3
1772644900.591883,1008620,0.19,-0.05,-0.15,0.00,-89.69,84.50,-4.75,7.81,0.19,0.21,0.03,-0.06,156.44,-68.50,234.44,-6.69,-0.25,-3.87,4,3
1772644900.630955,1008659,0.28,0.08,-0.18,-179.87,-89.87,84.25,-5.62,5.69,1.50,0.09,0.11,-0.12,156.44,-68.44,234.25,-1.94,0.50,-1.31,4,2
1772644900.670367,1008698,0.22,0.21,-0.15,-179.81,-89.69,84.00,-3.19,3.31,0.62,0.22,0.06,-0.07,156.44,-68.37,234.25,-1.81,1.56,-1.19,3,2
1772644900.711906,1008740,0.18,0.20,-0.11,-179.75,-89.56,83.87,-0.13,1.25,0.62,0.12,0.07,0.00,156.50,-68.37,234.19,0.62,0.13,0.50,4,2
1772644900.752268,1008780,0.09,0.09,-0.05,-179.75,-89.50,83.87,1.94,0.25,-0.37,0.06,0.09,0.00,156.56,-68.31,234.19,-0.88,0.50,0.31,3,2
1772644900.792575,1008820,-0.09,0.03,0.00,-179.75,-89.50,83.94,1.56,1.50,-1.31,0.07,0.09,0.03,156.56,-68.37,234.12,-1.12,0.44,-0.06,3,2
1772644900.831981,1008860,0.11,-0.05,-0.06,-179.81,-89.44,84.06,0.62,4.62,-2.25,0.11,0.06,0.00,156.62,-68.31,234.06,-2.12,0.25,-1.31,3,2
1772644900.871561,1008899,0.21,-0.06,-0.08,-179.87,-89.25,84.19,-0.62,4.75,-2.50,0.14,0.04,-0.03,156.56,-68.31,234.00,-2.19,0.75,-2.19,3,1
1772644900.913040,1008941,0.21,-0.03,-0.09,179.94,-89.06,84.25,-0.94,3.25,-1.19,0.21,0.02,-0.06,156.44,-68.25,234.00,-2.00,-0.19,-1.62,2,1
1772644900.953164,1008981,0.25,-0.01,-0.07,179.94,-88.94,84.25,-0.13,1.62,0.56,0.17,0.02,-0.06,156.44,-68.25,233.94,-1.19,-0.31,-0.69,2,1
1772644900.993030,1009021,0.28,0.00,-0.12,179.94,-88.94,84.19,0.06,0.06,1.37,0.16,0.03,-0.11,156.37,-68.19,233.94,0.25,0.37,-0.50,3,2
1772644901.033274,1009061,0.17,0.00,-0.05,-179.94,-88.94,84.12,-0.31,-1.37,1.62,0.14,0.04,-0.02,156.44,-68.19,233.94,0.13,-0.69,-0.69,4,2
1772644901.072926,1009101,0.11,0.06,0.00,-179.87,-89.00,84.06,-1.25,-1.50,0.94,0.15,0.02,0.01,156.37,-68.19,234.00,1.00,0.37,-0.19,4,2
1772644901.113985,1009142,0.06,0.08,0.00,-179.81,-89.06,84.00,-1.12,-1.19,0.94,0.01,0.02,-0.03,156.37,-68.19,234.00,0.06,-0.62,-0.31,4,2
1772644901.153709,1009182,0.07,0.02,0.00,-179.75,-89.06,83.87,-0.37,-0.56,0.62,0.12,0.05,0.01,156.31,-68.19,234.00,-0.75,0.37,-1.19,4,2
1772644901.193943,1009222,0.07,0.00,-0.03,-179.75,-89.06,83.87,-1.25,0.62,1.00,0.11,0.11,-0.04,156.25,-68.12,234.00,-0.81,0.50,-1.00,4,3
1772644901.233666,1009262,-0.09,0.39,0.07,-179.69,-89.00,83.75,-0.62,1.56,0.31,0.08,0.00,-0.03,156.31,-68.12,234.00,-1.12,0.13,0.06,4,3
1772644901.272869,1009301,0.17,0.44,0.00,-179.69,-88.87,83.87,12.56,5.06,3.12,0.15,0.00,0.07,156.44,-68.12,233.87,-1.69,0.06,-1.37,4,3
1772644901.314298,1009342,0.22,-0.10,-0.08,-179.50,-88.69,84.31,20.37,1.94,8.06,0.20,0.09,-0.06,156.37,-68.06,233.87,-0.94,0.81,-0.31,4,3
1772644901.354617,1009382,0.23,-0.38,-0.08,-179.19,-88.44,84.75,16.69,-0.19,8.06,0.19,0.10,-0.09,156.37,-68.06,233.81,-0.94,-0.31,0.00,5,3
1772644901.394818,1009422,0.16,-0.35,-0.07,-178.94,-88.31,85.00,4.62,-1.56,4.00,0.14,0.04,-0.10,156.44,-68.06,233.81,1.06,0.25,0.31,4,3
1772644901.434662,1009462,0.11,-0.20,-0.02,-178.94,-88.37,85.00,-7.06,-2.56,-1.19,0.17,0.00,-0.01,156.44,-68.06,233.81,0.13,-1.06,0.00,3,2
1772644901.474775,1009502,0.12,-0.06,0.00,-179.06,-88.50,84.75,-12.44,-1.69,-3.12,0.17,0.02,-0.01,156.37,-68.12,233.81,0.06,-0.88,-0.37,4,2
1772644901.515277,1009543,0.11,0.05,0.01,-179.19,-88.62,84.37,-13.25,-0.88,-3.94,0.10,0.00,0.01,156.37,-68.12,233.75,-0.94,-0.37,-1.00,4,2
1772644901.555430,1009583,0.11,0.20,-0.01,-179.31,-88.75,84.00,-10.56,-0.94,-1.81,0.12,0.06,-0.04,156.31,-68.12,233.75,-1.31,-1.19,-0.81,4,2
1772644901.595253,1009623,0.15,0.30,-0.01,-179.31,-88.75,83.62,-5.94,-1.00,0.00,0.14,0.05,0.00,156.31,-68.12,233.69,1.12,-0.25,0.50,4,2
1772644901.635078,1009663,0.16,0.29,-0.06,-179.19,-88.75,83.44,-0.56,-1.19,0.44,0.09,0.05,0.00,156.31,-68.19,233.75,0.06,-0.62,1.12,4,2
1772644901.675248,1009703,0.23,0.19,-0.10,-179.12,-88.75,83.44,4.06,-2.75,0.06,0.13,0.07,-0.02,156.37,-68.19,233.69,0.13,-0.37,0.62,4,2
1772644901.715996,1009744,0.31,0.07,-0.15,-179.12,-88.75,83.56,5.37,-4.69,-1.19,0.18,0.05,-0.07,156.37,-68.19,233.69,0.44,-0.06,0.50,4,2
1772644901.756064,1009784,0.19,-0.02,-0.12,-179.19,-88.94,83.81,5.44,-7.19,-0.94,0.11,0.04,-0.01,156.37,-68.19,233.69,0.25,0.19,0.06,4,1
1772644901.796134,1009824,0.04,-0.09,0.00,-179.19,-89.12,84.06,5.00,-7.87,-0.19,0.10,0.05,0.00,156.37,-68.19,233.69,-0.37,-0.19,-0.25,4,2
1772644901.835839,1009864,-0.02,-0.07,0.06,-179.19,-89.19,84.25,3.56,-5.31,0.62,0.08,0.05,0.02,156.37,-68.19,233.69,0.81,0.69,0.06,4,2
1772644901.875708,1009904,0.03,-0.05,0.07,-0.75,-89.19,84.37,1.44,-3.87,0.50,0.08,0.01,0.04,156.37,-68.19,233.75,-0.06,0.19,0.19,5,2
1772644901.916389,1009944,0.01,0.05,0.11,-0.75,-89.19,84.37,0.25,-2.81,-0.06,0.08,0.03,-0.01,156.37,-68.19,233.75,0.56,0.62,-0.56,5,3
1772644901.956585,1009984,0.00,0.03,0.11,-0.75,-89.12,84.37,0.19,-0.88,-0.62,0.06,0.01,-0.04,156.37,-68.12,233.75,-0.25,0.75,-0.50,5,3
1772644901.996663,1010025,0.06,0.00,0.08,-0.75,-89.12,84.44,0.31,0.62,-0.25,0.12,0.05,-0.09,156.37,-68.12,233.75,-0.81,0.25,-1.00,4,3
1772644902.036401,1010064,0.14,0.05,0.05,-0.75,-89.19,84.44,0.06,1.81,-0.25,0.21,0.08,-0.10,156.31,-68.12,233.75,0.25,1.37,-0.69,4,3
1772644902.076568,1010104,0.16,0.06,0.04,-0.69,-89.19,84.44,-0.62,0.94,-1.75,0.21,0.00,-0.11,156.37,-68.06,233.75,-1.12,-0.06,0.31,5,4
1772644902.117527,1010145,0.08,-0.06,0.11,-0.62,-89.25,84.50,-0.50,0.44,-1.56,0.14,-0.01,-0.04,156.31,-68.06,233.75,-0.37,-0.88,-0.69,4,4
1772644902.157289,1010185,0.02,0.00,0.10,-0.62,-89.31,84.50,-0.56,0.94,0.31,0.17,-0.01,0.00,156.31,-68.12,233.69,-0.25,-0.62,0.56,4,4
1772644902.197442,1010225,0.01,-0.02,0.04,-0.62,-89.31,84.50,-0.56,3.19,0.13,0.12,0.03,0.01,156.37,-68.12,233.69,-0.94,-0.88,0.56,4,4
1772644902.237704,1010265,0.13,0.04,-0.03,-0.62,-89.31,84.50,-2.31,3.94,-0.19,0.10,0.09,-0.04,156.37,-68.12,233.62,-1.19,-0.69,-0.31,4,4
1772644902.276707,1010304,0.14,0.03,-0.04,-179.37,-89.31,84.44,-2.25,4.50,-1.37,0.14,0.02,-0.02,156.37,-68.19,233.56,-2.62,-0.56,-1.50,3,3
1772644902.317940,1010346,0.08,0.07,-0.01,-179.37,-89.31,84.37,-1.56,4.31,-0.75,0.14,0.04,-0.02,156.31,-68.12,233.50,-1.31,-0.31,-0.44,4,3
1772644902.358206,1010386,0.08,0.00,-0.05,-179.37,-89.25,84.31,-0.37,4.00,-0.37,0.00,0.05,-0.02,156.31,-68.12,233.44,-2.62,-0.88,-1.00,4,3
1772644902.398235,1010426,0.15,-0.02,-0.08,-179.37,-89.12,84.31,-0.37,4.50,0.25,0.11,0.11,-0.03,156.31,-68.12,233.37,-0.50,1.44,-1.75,4,3
1772644902.438237,1010466,0.20,0.07,-0.08,-179.37,-88.94,84.31,-1.50,4.44,-0.37,0.13,0.08,-0.06,156.25,-68.06,233.44,-0.81,-0.06,-0.06,4,2
1772644902.477654,1010505,0.21,0.09,-0.07,-179.44,-88.81,84.25,-1.94,3.00,-2.12,0.17,0.06,-0.03,156.25,-68.06,233.44,-0.69,1.81,-1.19,3,1
1772644902.518585,1010546,0.21,0.03,-0.07,-179.50,-88.75,84.31,-1.50,1.37,-2.62,0.13,0.03,0.01,156.25,-68.00,233.44,-0.37,0.13,-0.44,3,1
1772644902.558821,1010587,0.10,0.06,-0.02,-179.62,-88.75,84.31,-0.31,0.75,-1.81,0.11,0.05,0.02,156.25,-68.00,233.44,-0.50,1.12,-1.00,3,1
1772644902.599101,1010627,0.14,-0.02,-0.03,-179.69,-88.75,84.37,0.88,1.50,-1.44,0.11,0.02,-0.04,156.19,-67.94,233.44,-1.12,1.00,-1.00,2,1
1772644902.639029,1010667,0.16,-0.07,-0.03,-179.75,-88.69,84.50,0.37,1.50,-1.25,0.10,0.05,-0.02,156.25,-67.87,233.44,-1.69,0.69,-0.75,2,1
1772644902.678761,1010706,0.18,-0.02,-0.05,-179.75,-88.62,84.50,-1.19,1.00,-0.88,0.17,0.02,-0.02,156.19,-67.81,233.44,-1.37,1.06,-2.12,3,2
1772644902.719661,1010747,0.16,-0.02,-0.06,-179.81,-88.62,84.50,-1.69,0.25,-1.06,0.12,0.03,-0.03,156.12,-67.81,233.37,-1.56,0.25,-1.06,4,3
1772644902.759780,1010787,0.14,0.01,-0.03,-179.81,-88.62,84.44,-2.00,-0.06,-0.50,0.12,0.07,-0.01,156.12,-67.75,233.31,-1.31,0.31,-1.06,6,4
1772644902.799807,1010827,0.16,0.01,-0.04,-179.81,-88.62,84.37,-1.25,-0.50,-0.37,0.15,0.06,-0.01,156.06,-67.69,233.37,-0.81,1.62,-1.87,6,4
1772644902.839626,1010868,0.13,0.01,-0.04,-179.81,-88.69,84.31,-0.88,-0.62,0.06,0.11,0.05,0.02,156.06,-67.69,233.31,-0.37,-0.44,0.62,6,4
1772644902.879691,1010908,0.16,0.00,0.00,-179.81,-88.69,84.31,-1.06,-0.31,0.25,0.07,0.10,-0.04,156.06,-67.69,233.37,0.31,1.00,-0.88,6,4
1772644902.920492,1010948,0.13,0.12,-0.03,-179.81,-88.69,84.25,-0.94,-0.31,-0.13,0.08,0.08,-0.05,156.06,-67.62,233.37,0.25,1.56,-0.69,6,5
1772644902.960331,1010988,0.13,0.00,-0.01,-179.87,-88.69,84.31,0.50,-1.12,-1.94,0.25,0.00,-0.01,156.00,-67.50,233.44,-0.37,1.81,-1.87,6,5
1772644903.000331,1011028,0.16,-0.07,0.01,-179.94,-88.75,84.31,0.62,-1.44,0.06,0.11,0.05,-0.06,155.94,-67.50,233.50,0.00,-1.56,0.62,7,5
1772644903.040118,1011068,0.11,-0.03,-0.02,-179.87,-88.81,84.31,0.56,-0.94,0.62,0.18,0.10,0.01,155.94,-67.62,233.44,-0.44,-3.06,2.06,7,5
1772644903.080613,1011108,0.07,-0.01,0.00,-179.87,-88.81,84.31,-0.06,-0.88,1.00,0.10,0.09,-0.01,155.94,-67.69,233.37,-0.19,0.50,-0.69,6,5
1772644903.120711,1011149,0.08,0.03,0.00,-179.81,-88.81,84.25,-0.88,-0.44,1.37,0.16,0.06,0.02,155.94,-67.69,233.37,0.13,-0.50,0.19,5,4
1772644903.161128,1011189,0.12,0.01,0.00,-179.81,-88.81,84.19,-0.88,-0.13,1.37,0.11,0.08,-0.04,155.94,-67.69,233.37,-0.19,-0.06,-0.31,3,3
1772644903.201344,1011229,0.12,0.05,-0.06,-179.75,-88.81,84.12,-0.88,0.13,0.44,0.16,0.06,-0.02,155.94,-67.69,233.37,-0.62,-0.19,-0.62,3,3
1772644903.241357,1011269,0.16,0.05,-0.01,-179.75,-88.81,84.06,-0.69,0.19,0.44,0.12,0.08,-0.03,155.87,-67.69,233.37,0.00,-0.19,-0.50,3,3
1772644903.281506,1011309,0.13,0.05,-0.04,-179.75,-88.81,84.06,-0.13,-0.19,0.06,0.15,0.06,-0.04,155.87,-67.69,233.44,0.25,0.31,-0.25,3,3
1772644903.321904,1011350,0.16,0.03,-0.05,-179.75,-88.81,84.06,0.31,-0.56,-0.37,0.15,0.05,-0.02,155.87,-67.69,233.44,-0.06,-0.75,0.44,3,3
1772644903.361868,1011390,0.15,0.02,-0.04,-179.75,-88.81,84.06,0.31,-0.75,-0.31,0.14,0.03,-0.01,155.81,-67.69,233.44,-0.13,-0.37,0.31,3,2
1772644903.401878,1011430,0.14,0.00,-0.05,-179.75,-88.87,84.06,0.06,-0.81,-0.50,0.17,0.04,-0.03,155.81,-67.69,233.44,-0.06,0.13,-0.25,2,2
1772644903.442230,1011470,0.14,-0.05,-0.02,-179.75,-88.87,84.06,0.06,-1.31,-0.13,0.15,0.02,-0.03,155.81,-67.69,233.44,-0.13,-0.13,0.00,2,2
1772644903.481761,1011510,0.11,0.02,0.00,-179.75,-88.94,84.06,-0.25,-1.81,0.75,0.13,0.05,0.00,155.81,-67.69,233.44,-0.19,-0.56,0.13,1,2
1772644903.522296,1011550,0.14,0.01,-0.02,-179.75,-89.00,84.06,-0.19,-1.31,0.69,0.10,0.05,-0.03,155.75,-67.69,233.44,0.06,0.44,-1.31,3,4
1772644903.562414,1011590,0.16,0.07,-0.01,-179.69,-89.06,84.00,-0.13,-1.56,0.75,0.15,0.04,-0.04,155.69,-67.62,233.44,-0.19,-0.62,-0.56,5,5
1772644903.602623,1011630,0.19,0.05,-0.08,-179.69,-89.12,84.00,0.37,-1.87,0.44,0.19,0.07,-0.04,155.62,-67.62,233.50,-0.25,-0.31,-0.75,5,5
1772644903.642047,1011670,0.13,0.08,-0.06,-179.69,-89.19,84.00,1.00,-3.50,0.69,0.14,0.00,0.03,155.62,-67.62,233.50,0.44,-0.81,0.50,5,6
1772644903.682424,1011710,0.11,0.04,-0.04,-179.62,-89.31,84.00,1.25,-3.19,0.56,0.03,0.11,-0.06,155.62,-67.62,233.50,0.44,0.37,-0.62,6,6
1772644903.722983,1011751,0.15,0.11,-0.02,-179.62,-89.44,84.06,1.06,-3.44,-0.31,0.08,0.11,-0.04,155.62,-67.62,233.50,0.31,0.94,1.00,6,6
1772644903.763017,1011791,0.17,-0.10,0.00,-179.69,-89.56,84.12,1.56,-4.37,-1.87,0.16,-0.01,-0.08,155.62,-67.56,233.56,1.87,4.06,-1.25,7,7
1772644903.802880,1011831,0.14,-0.02,0.02,-179.75,-89.69,84.25,0.06,-5.75,1.31,0.18,0.00,-0.10,155.75,-67.44,233.69,1.94,2.44,1.44,7,7
1772644903.842277,1011870,0.08,0.09,0.03,-0.31,-89.62,84.12,-0.19,-5.69,2.12,0.19,0.00,-0.02,155.81,-67.44,233.75,0.94,0.00,1.06,7,7
1772644903.882640,1011911,0.01,0.10,0.03,-0.31,-89.50,84.12,-0.81,-3.37,0.06,0.13,0.03,0.00,155.87,-67.44,233.75,-0.56,-0.62,0.00,7,8
1772644903.923826,1011951,0.09,0.09,0.03,-0.31,-89.44,84.06,-0.62,-1.50,-1.25,0.07,0.04,0.04,155.81,-67.44,233.69,-1.69,-1.37,-0.75,5,6
1772644903.963814,1011992,0.05,0.04,0.05,-0.31,-89.37,84.12,-0.50,-0.62,-0.88,0.12,0.04,-0.10,155.75,-67.50,233.62,-0.37,0.75,-1.81,4,4
1772644904.003600,1012032,0.04,0.01,0.03,-0.25,-89.44,84.12,0.00,0.13,-0.62,0.13,0.04,0.00,155.69,-67.37,233.69,-0.13,1.25,-0.56,3,5
1772644904.043771,1012072,0.10,0.05,0.08,-0.25,-89.44,84.12,-0.31,0.88,0.37,0.14,0.04,-0.02,155.75,-67.37,233.69,-0.69,-0.06,0.69,3,4
1772644904.083793,1012112,0.09,0.08,0.06,-0.25,-89.44,84.12,-0.81,2.00,-0.62,0.23,0.03,-0.09,155.81,-67.37,233.69,-0.13,1.25,0.25,3,4
1772644904.124643,1012152,0.13,0.00,0.06,-0.19,-89.56,84.12,-1.44,1.87,-1.87,0.20,0.01,-0.09,155.81,-67.31,233.62,-1.69,-0.69,-0.44,2,4
1772644904.164481,1012192,0.10,0.03,0.07,-0.13,-89.62,84.12,-1.87,1.50,-1.56,0.12,0.10,-0.07,155.87,-67.44,233.50,-0.94,-3.31,2.19,2,3
1772644904.204367,1012232,0.02,0.08,0.04,-0.06,-89.75,84.12,-0.69,2.56,-1.25,0.11,0.04,-0.03,155.94,-67.56,233.44,-0.06,-0.62,0.62,2,3
1772644904.243522,1012272,0.05,0.06,0.00,-0.06,-89.87,84.19,0.81,3.87,-0.56,0.09,0.06,-0.01,155.94,-67.56,233.37,0.13,-2.50,1.75,2,3
1772644904.282688,1012311,0.11,0.05,-0.04,-179.87,-89.87,84.25,1.50,4.56,-0.44,0.10,0.09,0.00,156.00,-67.69,233.31,0.25,-1.94,1.06,2,2
1772644904.324890,1012353,0.12,-0.03,-0.05,-179.94,-89.69,84.31,1.00,4.75,-0.94,0.11,0.06,-0.08,155.94,-67.69,233.31,0.00,-0.69,0.06,3,3
1772644904.364853,1012393,0.19,0.00,-0.07,-179.94,-89.50,84.37,0.19,4.81,-0.94,0.12,0.01,-0.04,155.94,-67.75,233.31,0.00,-0.88,0.81,5,5
1772644904.404971,1012433,0.16,0.00,-0.11,179.94,-89.37,84.37,-0.19,4.44,-1.00,0.20,0.02,0.00,156.00,-67.81,233.25,0.25,-0.88,0.50,5,4
1772644904.445166,1012473,0.07,-0.05,-0.03,179.87,-89.19,84.44,-1.69,4.56,-1.56,0.11,0.04,0.05,155.94,-67.81,233.25,0.00,-0.94,0.37,5,4
1772644904.485059,1012513,0.07,-0.06,-0.04,179.81,-88.94,84.37,-4.19,6.06,-1.87,0.06,0.06,0.00,155.94,-67.81,233.25,1.06,-0.19,0.37,5,4
1772644904.525785,1012554,0.14,0.01,-0.06,179.75,-88.69,84.25,-6.81,7.37,-2.44,0.11,0.07,-0.06,156.00,-67.81,233.25,0.44,0.69,0.88,5,4
1772644904.565867,1012594,0.11,-0.05,-0.01,179.62,-88.37,84.12,-8.44,6.69,-5.12,0.19,0.03,-0.05,156.00,-67.81,233.25,-0.25,0.31,-0.19,5,5
1772644904.605869,1012634,0.12,-0.14,0.00,179.44,-88.06,83.94,-11.69,7.50,-5.25,0.14,0.02,-0.06,156.00,-67.81,233.25,0.56,0.00,0.62,6,5
1772644904.646141,1012674,0.05,-0.08,0.03,179.25,-87.75,83.62,-14.19,8.06,-5.00,0.16,-0.02,-0.01,156.00,-67.81,233.25,-0.44,0.31,-0.19,6,5
1772644904.685903,1012714,0.14,-0.09,0.03,179.06,-87.37,83.19,-16.75,9.31,-4.62,0.12,0.04,-0.05,156.00,-67.81,233.25,-0.19,-0.50,0.13,6,6
1772644904.726474,1012754,0.31,0.11,-0.07,178.94,-87.00,82.62,-17.19,6.81,-3.00,0.15,0.05,-0.06,156.00,-67.81,233.25,-0.62,0.19,0.06,5,5
1772644904.766478,1012794,0.29,0.25,-0.08,178.87,-86.75,82.06,-14.31,2.94,-1.56,0.14,0.09,-0.06,156.00,-67.81,233.19,-0.81,-1.25,0.25,3,3
1772644904.806728,1012835,0.26,0.30,-0.06,178.94,-86.69,81.56,-8.44,0.31,-0.06,0.16,0.06,-0.10,156.00,-67.87,233.19,-0.56,-0.44,-0.19,4,3
1772644904.846562,1012875,0.20,0.24,-0.05,179.06,-86.75,81.25,-1.44,-2.00,1.75,0.09,0.11,-0.06,156.00,-67.87,233.19,-0.19,-0.69,0.37,4,3
1772644904.886463,1012915,0.17,0.17,-0.04,179.19,-86.81,81.12,3.94,-2.62,2.69,0.16,0.10,-0.07,156.00,-67.87,233.19,0.44,-0.31,0.75,4,3
1772644904.927084,1012955,0.03,0.02,-0.01,179.31,-86.94,81.19,5.69,-2.31,1.62,0.09,0.10,-0.01,156.06,-67.87,233.12,0.75,-0.37,0.94,3,3
1772644904.967014,1012995,0.08,-0.09,-0.04,179.31,-87.00,81.37,3.69,0.13,0.37,0.14,0.07,-0.04,156.06,-67.87,233.19,0.56,0.69,-0.06,2,3
1772644905.007235,1013035,0.01,-0.02,-0.03,179.31,-87.00,81.50,0.88,2.44,-0.37,0.17,0.07,-0.01,156.12,-67.87,233.19,0.37,0.13,0.00,2,2
1772644905.047323,1013075,0.20,0.07,-0.07,179.25,-86.87,81.50,1.25,3.94,-1.00,0.13,0.03,-0.02,156.12,-67.87,233.19,-0.06,-0.37,0.06,2,2
1772644905.087398,1013115,0.33,0.00,-0.09,179.25,-86.69,81.62,3.06,0.56,-0.06,0.03,0.06,0.00,156.06,-67.94,233.19,0.50,-0.06,-1.19,2,2
1772644905.128014,1013156,0.16,-0.04,-0.02,179.25,-86.75,81.75,3.00,-2.25,0.37,0.17,0.04,-0.06,155.94,-67.87,233.31,0.94,1.44,-1.81,3,3
1772644905.167998,1013196,0.20,-0.04,0.00,179.25,-86.81,81.87,1.00,-2.00,-0.37,0.08,0.11,-0.05,155.81,-67.81,233.37,-0.13,-0.25,-0.81,4,4
1772644905.208249,1013236,0.18,-0.01,-0.01,179.25,-86.87,81.87,-0.50,-2.75,-0.75,0.16,0.05,-0.02,155.75,-67.75,233.44,1.31,2.00,-1.56,4,4
1772644905.248418,1013276,0.08,0.04,0.03,179.19,-87.00,81.87,-0.62,-2.69,-0.06,0.06,0.03,-0.09,155.69,-67.69,233.56,-0.13,-0.19,-0.25,4,4
1772644905.287950,1013316,0.16,-0.01,0.00,179.19,-87.06,81.87,-0.50,-1.19,-0.06,0.02,0.06,-0.04,155.62,-67.69,233.56,-0.37,1.37,-1.56,3,4
1772644905.328548,1013357,0.10,0.02,-0.03,179.19,-87.12,81.87,-1.44,-1.06,0.25,0.15,0.10,-0.12,155.56,-67.62,233.62,0.13,2.19,-1.06,4,4
1772644905.368647,1013397,0.20,0.10,-0.10,179.19,-87.12,81.81,-2.12,0.37,-2.25,0.12,0.08,-0.05,155.56,-67.56,233.69,-0.94,0.88,-0.69,5,4
1772644905.408852,1013437,0.29,0.04,-0.13,179.12,-87.12,81.81,-2.37,-1.62,-3.62,0.15,0.03,-0.05,155.50,-67.50,233.69,0.69,1.06,-1.62,4,4
1772644905.448925,1013477,0.25,0.10,-0.10,179.00,-87.12,81.81,-2.31,-3.62,-2.87,0.14,0.05,-0.04,155.44,-67.44,233.81,0.44,1.12,-0.81,4,5
1772644905.488112,1013516,0.26,0.09,-0.12,178.87,-87.25,81.87,-0.37,-5.31,-1.87,0.11,0.02,0.00,155.44,-67.37,233.87,1.19,1.69,-0.56,4,5
1772644905.529253,1013557,0.32,0.11,-0.17,178.87,-87.44,81.87,2.31,-7.62,0.19,0.08,0.08,-0.03,155.44,-67.31,233.94,1.25,2.56,-0.69,4,4
1772644905.569229,1013597,0.21,0.04,-0.10,178.87,-87.69,82.00,4.87,-9.63,1.19,0.08,0.10,-0.02,155.44,-67.19,234.12,1.06,3.06,-1.25,3,3
1772644905.609315,1013637,-0.07,0.14,0.10,178.94,-88.06,82.12,6.31,-8.38,2.12,0.01,0.08,0.06,155.44,-67.06,234.31,2.94,5.25,-0.69,3,3
1772644905.648721,1013677,0.08,0.07,0.02,179.06,-88.31,82.31,11.19,-4.81,5.44,-0.02,0.10,0.00,155.50,-66.81,234.50,2.06,6.69,-1.00,3,3
1772644905.687891,1013716,0.15,0.04,-0.03,179.31,-88.62,82.56,13.31,-5.56,7.62,0.23,0.05,0.00,155.62,-66.56,234.75,3.00,7.62,-1.44,4,3
1772644905.729650,1013758,0.15,-0.05,0.05,179.56,-88.94,82.81,11.19,-3.87,5.06,0.08,0.11,-0.06,155.69,-66.37,234.94,-0.69,2.31,0.19,4,3
1772644905.769950,1013798,0.11,-0.06,0.00,179.69,-89.12,83.00,5.75,-3.12,0.69,0.17,0.07,-0.11,155.75,-66.25,234.94,0.06,5.37,-1.69,3,2
1772644905.810152,1013838,-0.04,0.00,0.07,179.69,-89.19,83.19,0.44,-1.19,-2.81,0.10,0.09,-0.03,155.81,-66.00,235.06,0.37,3.75,-0.62,4,3
1772644905.849550,1013877,0.08,-0.02,0.02,179.50,-89.12,83.31,-1.37,2.19,-5.12,0.12,-0.02,-0.05,155.94,-65.87,235.12,0.31,4.69,-1.12,3,2
1772644905.888895,1013917,0.15,-0.05,-0.01,179.31,-88.94,83.44,-3.06,2.81,-6.69,0.15,0.05,-0.01,156.00,-65.69,235.25,-0.88,4.56,-1.94,3,2
1772644905.930513,1013958,-0.16,-0.12,0.04,179.00,-88.62,83.56,-5.12,4.75,-7.06,0.05,0.00,-0.03,156.00,-65.50,235.31,-0.75,5.25,-2.62,4,2
1772644905.970796,1013999,0.12,-0.08,-0.11,178.75,-88.25,83.62,-6.81,8.56,-7.06,0.10,0.00,0.00,156.00,-65.25,235.44,-0.75,5.19,-2.94,4,2
1772644906.011071,1014039,0.12,-0.10,-0.02,178.50,-87.81,83.62,-8.19,7.81,-7.19,0.13,-0.05,0.00,155.94,-65.00,235.56,-0.94,5.62,-4.31,4,2
1772644906.050285,1014078,0.36,-0.08,-0.07,178.19,-87.37,83.56,-9.50,8.00,-5.62,0.24,0.00,0.00,155.87,-64.75,235.69,-2.69,4.69,-5.12,4,2
1772644906.089458,1014118,0.41,-0.02,-0.10,178.00,-87.06,83.37,-9.94,4.06,-4.19,0.28,0.00,0.04,155.75,-64.50,235.75,-3.56,5.25,-5.44,4,2
1772644906.131122,1014159,0.08,0.02,0.02,177.94,-86.87,83.12,-9.56,3.94,-1.94,0.15,0.06,-0.04,155.62,-64.25,235.87,-3.62,5.06,-5.56,3,2
1772644906.171561,1014199,0.26,0.15,-0.10,177.87,-86.75,82.81,-8.75,2.62,-1.75,0.00,0.07,-0.14,155.56,-63.94,235.87,-3.81,4.75,-3.75,4,2
1772644906.211835,1014240,0.13,0.06,-0.01,177.81,-86.62,82.56,-7.31,0.19,-2.06,0.22,-0.02,-0.10,155.56,-63.69,235.94,-1.19,5.19,-3.37,4,2
1772644906.250821,1014279,0.06,0.00,0.15,177.75,-86.62,82.31,-7.56,1.62,-0.75,0.17,0.06,-0.02,155.56,-63.50,236.06,0.25,3.56,-1.75,4,3
1772644906.289909,1014318,0.02,-0.14,0.15,177.75,-86.50,82.00,-9.31,4.12,1.50,0.20,0.02,0.00,155.44,-63.38,236.25,0.62,4.00,-2.87,4,3
1772644906.331821,1014360,-0.28,-0.63,0.34,177.94,-86.37,81.37,-17.50,14.38,9.63,0.11,-0.07,0.03,155.31,-63.13,236.50,1.94,4.69,-3.31,4,4
1772644906.372111,1014400,0.10,-0.35,0.09,178.37,-86.00,80.12,-24.62,19.94,13.31,0.22,-0.20,0.13,155.25,-62.94,236.75,0.69,3.81,-2.06,4,4
1772644906.412457,1014440,0.27,-0.06,0.01,179.00,-85.44,78.56,-28.25,19.44,13.38,0.40,0.02,-0.05,155.06,-62.88,236.94,-3.69,-7.19,-1.12,4,5
1772644906.451935,1014480,0.47,0.43,-0.08,179.50,-84.87,76.94,-24.19,13.44,7.00,0.11,0.10,-0.21,154.94,-63.06,236.50,-11.31,-5.12,-8.38,5,5
1772644906.491120,1014519,0.11,0.27,0.11,179.81,-84.44,75.81,-19.75,8.75,2.94,0.04,0.25,-0.17,154.50,-63.13,236.19,-9.13,-8.69,-8.38,6,6
1772644906.532768,1014561,0.05,0.52,0.05,-179.94,-84.12,74.87,-13.63,7.81,-0.06,0.13,0.07,-0.26,154.19,-63.19,235.94,-4.69,-0.37,-5.44,7,6
1772644906.573197,1014601,0.21,0.55,-0.01,-179.75,-83.81,74.31,-4.25,7.19,-4.37,0.12,0.14,-0.18,154.12,-63.13,235.69,-7.19,-5.62,-1.75,7,6
1772644906.613207,1014641,0.37,0.35,-0.07,-179.75,-83.56,74.25,4.25,4.31,-7.00,0.15,0.07,-0.25,154.25,-63.19,235.31,-0.94,-0.31,-0.81,7,6
1772644906.652477,1014681,0.43,0.01,-0.11,179.94,-83.50,74.75,8.06,-1.06,-8.19,0.08,0.00,-0.19,154.31,-63.19,235.37,1.94,0.69,1.81,8,5
1772644906.691542,1014720,0.26,0.00,-0.05,179.56,-83.56,75.44,8.56,-4.56,-8.50,0.23,0.03,-0.05,154.37,-63.13,235.44,2.12,1.44,1.56,8,5
1772644906.733368,1014761,0.18,-0.07,0.00,179.19,-83.69,76.19,9.25,-3.94,-8.50,0.12,-0.04,-0.02,154.44,-63.13,235.50,0.19,-0.50,1.31,7,5
1772644906.773857,1014802,0.22,-0.16,-0.05,178.81,-83.81,76.87,9.25,-5.00,-8.13,0.09,0.00,-0.05,154.56,-63.13,235.44,-0.88,-0.44,1.00,9,6
1772644906.813894,1014842,0.15,-0.22,-0.07,178.50,-84.00,77.56,7.62,-6.62,-5.81,0.20,-0.11,-0.02,154.62,-63.19,235.44,0.94,-1.37,1.44,8,5
1772644906.853297,1014881,0.15,-0.16,-0.06,178.25,-84.12,78.12,6.69,-5.44,-3.25,0.10,-0.08,-0.10,154.56,-63.25,235.44,2.31,-3.12,1.87,8,6
1772644906.892464,1014920,0.18,-0.23,0.03,178.12,-84.31,78.44,4.19,-3.56,-1.06,-0.05,-0.03,0.01,154.50,-63.44,235.44,1.56,-3.81,1.44,7,6
1772644906.933983,1014962,0.06,-0.29,0.00,178.00,-84.37,78.62,-0.81,-3.56,0.06,0.04,-0.13,0.00,154.37,-63.44,235.56,5.00,0.19,1.69,6,6
1772644906.974515,1015002,0.12,-0.04,0.00,178.00,-84.50,78.56,-4.75,-3.31,-0.75,0.11,-0.08,0.05,154.37,-63.50,235.62,-1.75,-0.19,0.62,7,7
1772644907.014781,1015043,0.18,-0.02,-0.02,177.94,-84.56,78.37,-6.06,-1.50,-0.62,0.14,0.06,0.05,154.50,-63.56,235.50,-2.31,-2.06,-0.25,6,7
1772644907.053976,1015082,0.23,0.04,-0.20,178.00,-84.56,78.12,-6.62,-0.81,-0.25,0.08,0.17,0.09,154.50,-63.56,235.37,-1.75,-0.19,-0.50,5,7
1772644907.093244,1015121,0.35,0.17,-0.22,178.00,-84.62,77.87,-4.62,-3.37,-2.12,0.00,-0.06,-0.12,154.50,-63.50,235.44,2.44,0.94,-1.25,5,7
1772644907.134976,1015163,0.56,0.07,-0.27,177.87,-84.69,77.81,-3.81,-9.06,-9.38,0.13,0.06,-0.04,154.37,-63.56,235.50,-0.88,-1.75,-0.94,5,6
1772644907.175259,1015203,0.07,-0.29,-0.10,177.44,-84.87,78.06,-7.25,-14.69,-13.63,0.10,0.12,-0.07,154.31,-63.56,235.44,0.25,-1.56,-2.12,3,5
1772644907.215364,1015243,-0.09,-0.16,0.05,176.94,-84.94,78.12,-14.56,-7.37,-11.44,0.02,0.09,0.12,154.12,-63.56,235.56,0.94,-0.88,-1.19,3,5
1772644907.254520,1015283,0.11,-0.11,0.07,176.56,-84.81,77.87,-16.56,-2.50,-10.19,0.10,0.01,0.07,153.94,-63.56,235.69,1.37,0.69,-0.94,3,4
1772644907.294066,1015322,0.22,0.04,-0.01,176.25,-84.69,77.56,-14.25,-2.25,-6.06,0.09,0.00,-0.02,153.94,-63.56,235.69,-1.25,1.81,-0.44,3,4
1772644907.335426,1015364,0.11,0.05,0.02,176.12,-84.62,77.19,-9.75,-3.94,-0.50,0.06,0.04,-0.01,154.00,-63.50,235.69,1.62,1.19,0.62,3,4
1772644907.375507,1015404,0.25,0.09,0.00,176.19,-84.81,76.81,-4.44,-4.69,3.50,0.19,0.05,-0.09,154.06,-63.44,235.75,0.88,0.62,1.00,2,3
1772644907.415833,1015444,0.32,-0.23,-0.08,176.37,-85.06,76.50,-1.56,-6.56,6.69,0.18,0.01,-0.09,154.12,-63.44,235.87,3.50,0.81,1.31,2,2
1772644907.455356,1015483,0.49,-0.12,-0.20,176.69,-85.50,76.12,-3.69,-11.44,10.50,0.19,-0.08,-0.04,154.06,-63.44,236.00,3.81,-0.06,2.19,2,3
1772644907.494619,1015523,0.70,0.16,-0.28,177.06,-86.12,75.56,-2.25,-19.25,9.81,0.12,-0.02,-0.03,154.06,-63.50,236.12,3.69,-1.31,2.56,2,3
1772644907.536171,1015564,0.83,0.87,-0.35,177.44,-86.94,75.12,4.75,-32.00,8.88,0.17,0.00,-0.06,154.12,-63.56,236.12,2.37,-2.19,2.75,4,5
1772644907.576450,1015605,0.51,1.36,-0.25,177.75,-87.75,75.19,26.69,-46.56,9.81,0.14,0.08,-0.06,154.12,-63.69,236.19,2.12,-3.25,0.94,4,5
1772644907.616600,1015645,0.04,1.31,0.01,1.75,-87.44,76.12,53.81,-53.00,11.63,-0.02,0.15,-0.08,153.94,-63.81,236.25,3.81,-3.37,-0.88,3,5
1772644907.655977,1015684,-0.40,0.67,0.23,1.19,-85.94,77.94,73.50,-46.31,12.44,-0.02,0.24,0.00,153.56,-63.88,236.50,7.19,-2.06,-2.12,4,5
