host_time_s,t_ms,ax1,ay1,az1,roll1,pitch1,yaw1,gx1,gy1,gz1,ax2,ay2,az2,roll2,pitch2,yaw2,gx2,gy2,gz2,emg1,emg2
1772042902.658598,239158,0.07,0.04,-0.05,39.50,72.12,252.00,5.69,-15.13,4.25,0.09,0.11,0.02,26.50,79.69,106.81,0.19,-2.62,0.88,8,4
1772042902.659393,239348,-0.14,0.01,-0.03,44.88,73.06,249.00,15.69,-10.63,2.94,0.09,-0.08,-0.03,28.75,79.81,106.12,2.37,-2.94,0.94,8,4
1772042902.660156,239537,-0.18,-0.02,-0.02,43.75,75.12,247.56,11.13,-10.50,-15.31,0.02,0.07,-0.03,28.69,80.31,105.81,1.69,-0.88,-1.37,7,4
1772042902.660922,239729,0.01,0.16,0.08,40.81,76.06,248.37,-7.19,3.12,4.75,-0.09,0.12,0.05,28.94,80.81,106.06,1.81,-6.31,-0.75,7,4
1772042902.661490,239920,0.14,0.21,0.12,44.00,73.69,248.81,-10.75,11.88,11.81,0.01,-0.06,-0.01,30.25,81.00,105.87,-1.31,0.25,-1.25,7,5
1772042902.662224,240111,-0.13,-0.04,-0.03,44.25,72.81,248.31,4.37,-2.19,-2.81,-0.01,0.03,0.04,28.31,81.25,106.31,1.12,-1.44,-1.00,7,5
1772042902.662977,240302,-0.10,0.00,0.08,40.69,72.94,248.50,4.19,2.94,-2.00,-0.01,0.07,0.02,27.69,81.25,106.25,1.06,0.56,0.25,5,4
1772042902.663554,240492,-0.07,-0.05,0.03,39.56,72.62,248.00,2.69,1.44,1.87,0.00,0.06,0.00,27.87,81.19,106.31,-2.06,-0.50,-0.56,5,3
1772042902.664042,240686,0.01,0.08,0.05,39.50,72.50,247.94,2.37,-0.69,0.75,0.00,-0.02,0.00,28.06,81.19,106.25,-1.12,0.69,0.56,4,3
1772042902.664533,240878,-0.02,0.05,-0.04,39.69,72.44,247.87,-1.31,0.75,-0.25,-0.01,0.05,0.01,28.62,81.25,106.50,-0.31,0.31,-0.06,4,3
1772042902.665007,241069,-0.08,-0.02,0.04,39.44,72.31,247.87,1.12,0.13,0.81,-0.02,0.03,0.03,28.50,81.19,106.50,-0.31,0.88,0.13,4,3
1772042902.805254,241260,0.02,0.04,0.02,39.31,72.25,247.81,0.37,0.37,0.13,0.00,0.00,0.02,29.00,81.12,106.37,-0.62,-0.25,1.19,4,2
1772042902.996142,241450,0.03,0.05,0.07,39.31,72.25,247.81,-1.37,-0.25,-0.44,-0.02,0.03,0.03,29.81,81.06,106.37,-1.25,0.06,0.37,4,3
1772042903.186454,241641,0.00,0.02,0.02,39.56,72.25,247.87,-1.12,0.19,0.00,-0.01,0.01,0.02,30.06,81.12,106.50,0.69,0.19,-0.06,4,3
1772042903.377087,241831,0.07,-0.15,0.09,40.75,72.25,247.81,-5.12,-3.12,2.81,0.00,0.03,0.10,30.19,81.12,106.50,0.44,-1.19,0.56,4,2
1772042903.566791,242021,-0.23,0.11,-0.08,47.88,72.50,248.56,-12.88,-1.25,2.19,-0.02,0.02,-0.06,30.75,81.25,106.50,4.19,2.87,0.50,4,2
1772042903.758364,242212,0.00,0.12,0.08,46.13,73.50,250.25,-0.19,-0.31,-9.31,-0.01,0.03,0.03,28.50,81.06,106.00,-3.31,-0.44,-0.81,4,2
1772042903.949066,242403,0.10,-0.15,0.03,47.06,73.87,251.62,-19.06,-2.00,2.37,-0.01,-0.02,0.00,29.44,81.37,106.37,-0.62,-1.62,-0.31,4,2
1772042904.139458,242594,0.10,0.28,0.04,50.44,73.31,254.25,-9.31,7.50,-0.19,-0.02,0.11,0.08,29.25,81.56,107.25,0.75,0.44,-0.62,4,2
1772042904.328833,242783,0.15,0.01,0.04,48.69,72.94,254.81,-2.31,0.94,3.50,-0.06,0.02,0.09,29.00,81.56,107.19,-2.37,-1.50,0.50,5,2
1772042904.520674,242975,-0.14,0.01,0.00,49.94,73.31,254.69,-0.37,-1.75,-2.31,0.01,0.03,-0.03,30.25,81.87,107.25,-0.44,-0.56,0.31,4,2
1772042904.711469,243166,0.02,0.30,0.07,49.19,73.50,256.31,-8.81,2.25,-1.00,-0.04,0.07,0.00,30.25,82.06,107.50,-2.94,-0.69,-0.44,4,2
1772042904.901898,243356,0.13,-0.10,0.13,48.44,73.62,256.31,3.44,-4.87,1.19,-0.02,-0.05,0.11,30.00,82.00,107.50,1.19,-0.81,0.13,4,2
1772042905.092692,243547,-0.15,0.01,-0.06,52.19,74.37,255.94,-1.50,-4.62,1.06,0.00,0.03,0.04,30.31,82.12,107.56,-0.88,-0.06,0.44,4,2
1772042905.283073,243737,0.02,0.08,0.08,51.63,74.50,255.81,6.31,2.00,-3.31,-0.01,-0.05,0.02,31.37,82.06,107.50,0.19,-0.13,0.13,3,2
1772042905.473269,243927,-0.02,0.15,0.04,47.25,75.19,255.25,12.56,-2.62,-4.62,0.01,0.00,0.04,30.25,82.12,107.56,-0.62,-2.25,-0.69,3,2
1772042905.664005,244118,0.07,-0.16,0.15,47.88,75.75,253.25,7.12,-12.75,6.12,0.01,0.01,0.12,30.19,82.12,107.75,-1.31,0.81,-0.13,3,2
1772042905.854613,244309,-0.26,0.01,-0.12,61.38,75.94,250.87,-0.37,-11.81,12.56,-0.01,0.00,0.01,31.94,82.12,107.56,-0.69,-0.25,2.25,3,2
1772042906.045572,244500,-0.16,-0.14,0.03,66.44,75.44,249.44,-2.06,0.56,-5.50,0.00,-0.03,0.04,33.25,81.94,107.19,0.56,0.81,0.25,4,3
1772042906.235991,244690,-0.05,0.23,-0.03,62.94,76.37,251.37,-3.00,3.75,-6.19,0.02,-0.18,0.10,33.50,82.06,107.37,4.69,-0.44,-0.81,4,4
1772042906.425769,244880,0.22,0.36,0.10,47.44,76.12,250.44,47.25,34.69,-4.31,0.05,0.05,0.54,28.87,81.44,106.19,10.13,8.19,1.69,4,4
1772042906.617026,245071,-0.06,-0.41,0.01,40.00,73.87,245.69,6.81,-1.00,4.37,0.00,0.02,0.09,24.37,80.62,104.56,2.31,-0.06,-1.06,4,4
1772042906.807711,245262,-0.25,-0.17,0.15,42.25,73.87,244.94,-3.12,2.50,-2.75,-0.07,0.06,0.12,26.50,80.87,105.00,-6.06,-5.25,1.69,4,4
1772042906.998828,245453,0.14,-0.18,0.02,45.63,74.44,247.94,-42.25,-14.38,0.44,0.02,-0.06,-0.10,29.44,81.44,104.81,2.12,-2.94,0.06,5,4
1772042907.189012,245643,-0.03,0.44,0.00,53.38,75.56,253.12,-1.44,9.81,-7.94,-0.01,0.14,0.00,29.12,81.62,105.12,2.25,1.37,0.00,5,4
1772042907.379651,245834,0.08,-0.09,0.13,46.56,75.25,253.31,7.19,1.69,1.62,-0.02,0.02,0.05,28.94,81.56,104.87,-2.75,-0.25,-0.25,6,4
1772042907.570273,246024,-0.02,0.22,-0.08,48.00,75.25,252.44,2.50,-5.37,6.00,0.00,0.05,0.04,28.87,81.56,105.12,-0.31,0.81,0.44,6,4
1772042907.760934,246215,-0.02,-0.17,0.11,52.44,74.56,249.87,7.50,-2.06,7.44,-0.05,-0.04,-0.01,29.25,81.62,105.31,-2.50,-0.44,-0.13,6,4
1772042907.951998,246406,0.00,-0.05,-0.07,55.00,74.69,249.37,-5.94,-5.31,-3.12,-0.06,0.01,0.21,29.00,81.75,105.94,-3.44,1.06,-1.87,5,3
1772042908.142720,246596,-0.27,0.27,-0.40,57.69,75.75,251.06,-5.94,-4.87,-0.25,-0.10,-0.09,-0.13,24.50,82.06,106.44,3.19,-5.81,-9.06,6,3
1772042908.332996,246787,0.44,0.01,0.65,51.56,74.06,250.50,11.00,19.94,6.19,-0.07,-0.02,-0.07,18.69,82.94,107.31,0.19,0.50,1.25,6,3
1772042908.523351,246978,0.09,-0.10,0.19,47.00,72.94,248.87,4.94,-4.25,-5.62,-0.07,0.13,0.02,22.37,82.94,106.56,3.44,-3.19,2.94,6,3
1772042908.713485,247168,0.02,0.13,-0.04,44.56,73.69,249.12,6.06,4.06,-0.37,0.04,-0.02,0.14,25.19,82.81,106.00,1.06,1.62,2.37,6,2
1772042908.904971,247359,0.08,-0.12,0.04,43.69,73.69,248.62,-0.62,-2.25,0.62,0.01,-0.02,0.03,26.12,82.62,105.75,-2.00,-0.19,0.62,6,2
1772042909.095680,247550,-0.16,0.25,-0.06,47.56,74.19,249.62,-7.81,-1.31,-1.56,0.00,0.05,0.08,25.94,82.50,106.12,-0.50,1.69,-0.25,6,2
1772042909.286336,247740,0.03,-0.03,-0.01,47.19,74.50,250.06,2.12,-0.69,0.94,-0.02,0.00,0.07,26.50,82.37,106.00,-1.37,-2.12,0.69,5,2
1772042909.476847,247931,0.02,0.21,-0.03,48.06,74.81,250.19,-0.19,-1.19,1.44,0.02,-0.01,0.03,26.75,82.37,105.94,0.50,0.06,-0.37,5,2
1772042909.667071,248121,0.02,0.00,0.06,50.25,74.62,249.44,-1.87,-3.81,5.12,-0.02,-0.02,0.03,26.94,82.50,105.94,-2.31,-1.75,-0.88,4,3
1772042909.858234,248312,-0.05,0.00,0.00,53.63,74.44,249.00,-3.56,-5.19,-2.00,0.00,0.09,0.03,26.62,82.62,106.44,-0.44,0.94,-0.31,4,3
1772042910.048741,248503,0.03,0.00,-0.02,54.31,74.87,249.37,0.88,0.50,0.31,0.00,0.03,0.05,27.31,82.62,106.44,-1.87,-1.25,0.25,3,2
1772042910.239627,248694,0.08,0.05,0.05,54.19,74.87,249.62,-1.00,-0.25,1.00,-0.01,0.05,0.08,27.37,82.62,106.56,0.44,0.69,-0.06,2,2
1772042910.430388,248885,0.02,0.00,0.02,54.88,74.81,249.50,1.25,-0.94,0.50,-0.01,-0.01,0.04,28.06,82.50,106.31,-0.06,0.31,0.56,2,3
1772042910.620021,249074,-0.01,0.13,-0.06,55.19,74.94,249.62,-2.37,0.81,-0.19,0.01,0.00,0.07,28.37,82.56,106.37,0.19,0.37,0.06,3,4
1772042910.811609,249266,-0.15,0.05,-0.15,53.50,74.62,249.69,1.00,6.87,-0.75,0.00,0.01,0.06,28.44,82.69,106.50,-1.00,-2.25,0.06,3,4
1772042911.001951,249457,-0.04,0.12,0.02,47.31,73.87,249.62,5.75,6.00,0.62,-0.04,0.06,0.01,28.75,82.69,106.37,0.81,1.00,0.88,3,4
1772042911.193038,249648,0.15,-0.22,0.18,42.31,72.62,248.50,5.81,4.69,0.25,0.04,0.00,0.08,28.69,82.62,106.31,-0.94,-0.62,0.50,3,4
1772042911.382683,249837,0.03,0.01,0.04,42.19,72.69,248.62,-2.50,-2.25,-1.87,-0.03,0.07,0.13,30.25,82.50,106.06,2.25,-0.50,1.50,3,3
1772042911.572921,250027,0.04,-0.06,0.19,47.19,73.31,249.50,-19.44,-11.69,5.81,-0.07,0.02,-0.07,30.12,82.62,106.00,-0.44,-0.19,-0.62,3,3
1772042911.764945,250219,-0.23,0.19,-0.06,51.88,73.75,250.62,1.25,-2.56,-2.37,-0.03,0.08,-0.01,29.94,82.50,106.12,-1.19,-1.44,-0.37,4,3
1772042911.955689,250410,0.26,-0.08,0.10,48.25,74.19,250.25,14.06,3.12,-7.25,0.01,0.06,0.22,28.19,82.12,106.19,-0.75,1.25,0.31,4,3
1772042912.146949,250601,-0.17,0.06,-0.07,50.56,74.75,250.44,-10.94,-5.69,-1.31,0.01,0.02,0.06,29.19,82.37,106.44,-1.75,-0.81,-0.62,5,3
1772042912.337504,250792,-0.04,0.17,-0.02,51.56,75.19,251.56,-0.50,0.69,0.94,0.00,0.03,0.08,29.19,82.37,106.56,0.50,0.31,0.19,6,3
1772042912.527295,250981,-0.02,-0.04,-0.04,54.75,75.12,251.19,-2.81,-5.19,2.94,0.02,0.01,0.07,29.62,82.50,106.62,-0.13,-0.44,-0.56,5,1
1772042912.719009,251174,0.07,0.03,0.00,56.44,75.12,251.31,-0.88,-0.31,1.37,-0.03,0.02,0.10,28.94,82.56,106.81,0.06,0.56,0.00,5,1
1772042912.911683,251366,-0.07,-0.03,-0.01,57.31,75.00,251.06,-0.31,0.75,1.00,0.02,0.01,0.11,29.00,82.62,106.87,-1.19,0.13,0.19,5,1
1772042913.103686,251558,-0.31,0.15,-0.19,57.94,75.00,251.31,-1.37,2.31,0.88,-0.02,0.06,0.08,29.19,82.62,106.94,-1.19,1.12,0.00,5,3
1772042913.293632,251748,-0.11,0.04,-0.10,55.25,74.44,251.31,2.12,2.75,-1.12,0.09,0.05,0.05,29.19,82.62,107.00,0.75,0.94,-0.25,6,3
1772042913.486014,251941,0.05,0.28,0.08,47.13,73.56,251.00,19.37,21.19,-1.31,0.00,0.05,0.23,28.81,82.44,106.75,2.31,0.88,0.75,6,3
1772042913.677581,252132,0.06,-0.18,0.21,41.06,71.81,248.75,1.25,1.44,1.31,-0.04,0.06,-0.01,28.56,82.37,106.37,1.87,-1.37,1.06,5,3
1772042913.868709,252323,-0.11,-0.02,0.00,43.56,72.25,248.81,-7.56,-9.56,-0.50,-0.01,0.05,0.02,28.94,82.12,106.12,-0.31,2.81,0.31,5,3
1772042914.059562,252514,-0.02,0.17,-0.05,46.50,72.94,250.06,-7.37,-3.69,-0.31,-0.02,0.06,0.00,28.12,81.75,105.94,-0.13,0.06,0.62,4,3
1772042914.249480,252704,-0.03,-0.09,-0.02,47.50,73.25,250.37,-0.06,-2.31,0.44,-0.07,0.01,0.02,28.12,81.56,106.12,-3.62,1.12,-0.19,3,3
1772042914.440645,252895,0.09,0.00,0.03,48.00,73.31,250.87,-5.87,-0.50,-0.50,-0.01,0.04,0.08,28.06,81.56,107.19,-5.81,-0.69,-0.94,3,3
1772042914.631028,253085,0.04,-0.13,0.11,50.69,73.56,251.87,-12.31,-6.37,2.25,-0.05,0.07,0.02,29.06,81.69,107.81,-2.00,-1.37,2.31,4,3
1772042914.821678,253276,0.06,0.66,-0.10,59.56,72.75,255.25,-19.62,1.37,4.25,-0.03,-0.05,0.06,31.81,81.62,107.69,-1.94,1.69,0.62,5,4
1772042915.012602,253467,0.07,-0.03,0.01,60.38,73.81,256.19,-4.25,-7.75,-3.19,-0.02,-0.15,0.11,32.25,81.44,107.62,-0.56,-1.19,0.50,6,3
1772042915.201898,253656,-0.03,0.19,-0.05,65.19,75.00,257.19,-3.25,-8.00,-2.81,0.05,-0.03,0.04,33.38,81.56,107.62,0.00,-1.56,-0.37,6,3
1772042915.393025,253847,-0.08,0.04,0.03,66.75,75.37,256.87,5.25,2.69,1.94,-0.04,-0.02,0.01,33.63,81.62,107.62,-0.44,-0.37,0.31,5,3
1772042915.583734,254038,0.07,0.03,0.06,64.06,75.12,256.06,4.62,1.00,-1.69,0.00,0.01,0.05,33.69,81.62,107.62,-0.19,0.00,-0.25,7,4
1772042915.774731,254229,-0.13,0.28,-0.10,61.63,75.12,255.44,12.31,6.12,-0.37,-0.01,-0.08,0.05,33.31,81.56,107.56,1.25,1.06,-0.06,8,4
1772042915.964137,254419,0.21,-0.16,0.24,52.25,74.69,253.19,14.69,5.56,-0.75,0.01,-0.08,0.15,33.44,81.44,107.25,1.87,-0.25,-0.19,8,4
1772042916.153345,254608,-0.11,0.00,0.16,51.00,74.44,252.12,3.06,0.13,1.87,-0.04,-0.12,0.15,32.75,81.25,106.87,-1.12,2.44,0.75,8,4
1772042916.345683,254800,-0.09,0.04,0.03,53.44,74.37,252.25,-18.25,-8.50,3.31,-0.04,0.00,0.08,33.50,81.25,107.25,-2.87,-2.31,-0.69,8,5
1772042916.536927,254991,-0.06,-0.02,-0.06,57.69,75.00,253.00,4.12,-2.00,0.25,0.00,-0.10,0.09,33.88,81.25,107.00,-0.06,-0.37,0.25,7,5
1772042916.727705,255182,-0.08,0.17,-0.09,59.19,75.44,253.12,-2.75,-5.37,-1.12,0.01,0.06,0.10,34.38,81.56,107.12,1.00,-1.06,-1.00,7,5
1772042916.916760,255371,0.02,0.01,-0.05,63.50,75.44,252.44,2.00,-6.19,3.37,0.10,0.06,0.12,32.44,82.06,107.94,-1.62,5.94,-2.50,6,4
1772042917.106095,255561,-0.02,-0.09,0.01,63.69,75.06,251.75,4.06,3.37,0.19,0.03,0.04,0.03,31.62,82.00,107.81,1.44,-1.37,0.94,5,4
1772042917.298507,255753,0.09,-0.04,0.10,60.81,74.69,251.69,-2.62,1.87,0.13,-0.01,0.00,-0.01,32.75,81.94,107.56,-0.06,-0.37,0.75,4,5
1772042917.489724,255944,0.07,0.13,0.02,60.38,74.94,252.19,0.06,2.69,0.06,-0.02,0.07,0.01,34.38,82.19,107.19,3.56,-1.44,-1.06,3,3
1772042917.680437,256135,-0.05,0.03,0.04,60.44,74.50,251.69,-0.25,1.12,1.75,-0.02,-0.01,0.06,31.44,82.31,107.31,1.19,0.69,-1.69,3,3
1772042917.870029,256324,0.02,-0.13,-0.08,59.50,74.06,251.25,2.00,1.44,0.13,-0.01,-0.03,0.09,31.75,82.00,107.25,-0.31,-1.19,2.56,3,3
1772042918.061407,256515,-0.10,0.11,-0.07,59.13,74.44,251.56,-1.44,-1.19,-1.56,-0.06,0.07,0.03,33.75,82.00,107.06,-1.00,0.56,-0.62,2,3
1772042918.252064,256707,0.09,0.01,0.10,56.31,74.06,251.62,6.31,8.19,-1.44,0.00,0.10,0.01,34.25,82.12,107.37,1.87,-1.75,0.13,2,2
1772042918.442941,256898,0.04,0.01,0.11,51.88,73.87,250.81,13.44,3.81,-1.00,0.06,-0.09,0.17,37.00,81.69,105.94,1.37,-1.19,1.56,2,2
1772042918.633280,257088,0.09,-0.12,0.03,50.00,73.81,249.44,1.00,0.75,0.88,0.00,0.00,0.04,36.13,81.69,105.87,1.31,0.88,-1.56,2,2
1772042918.823349,257278,0.11,-0.05,0.31,53.88,73.44,249.44,-14.50,-9.06,8.19,0.07,0.06,-0.10,35.19,81.50,105.75,-1.62,-0.56,2.37,2,3
1772042919.013020,257467,-0.12,0.18,-0.21,60.31,73.87,250.12,0.56,-3.87,-3.81,-0.17,0.01,0.14,35.00,81.25,105.37,5.31,3.12,0.56,2,3
1772042919.205009,257659,-0.12,-0.03,-0.15,61.88,74.12,249.37,3.69,-4.12,2.19,-0.03,-0.07,-0.03,33.69,81.12,104.75,4.19,-1.31,-2.25,3,2
1772042919.396114,257850,-0.27,0.07,-0.22,64.25,73.81,248.81,-7.25,-9.13,7.94,-0.35,0.14,0.49,28.19,81.31,105.56,-5.62,6.56,-2.00,3,2
1772042919.587012,258041,-0.51,-0.12,-0.07,70.75,72.00,246.25,15.88,5.94,13.81,-0.05,-0.44,-0.23,37.63,83.06,106.56,-10.69,-17.69,2.25,4,3
1772042919.777417,258232,-0.11,0.10,0.11,64.50,72.19,245.50,-12.69,-5.31,-8.13,0.16,-0.06,0.31,4.31,84.44,107.06,4.37,-10.19,0.13,4,3
1772042919.966682,258421,0.00,0.24,0.24,64.81,73.56,248.12,-2.19,5.44,-1.31,0.04,0.05,0.02,4.19,85.19,107.12,-6.19,2.56,-2.06,5,2
1772042920.157789,258612,0.06,0.39,-0.16,58.19,73.06,248.87,13.56,21.00,-5.87,0.06,0.00,0.03,4.00,85.62,107.25,8.06,-0.69,-0.13,6,4
1772042920.348881,258803,0.18,-0.02,0.28,44.13,71.44,247.62,17.31,15.06,-2.12,0.18,-0.07,0.19,3.56,85.69,106.19,8.50,1.37,-3.87,6,4
1772042920.539518,258994,-0.01,0.07,0.07,41.69,70.25,246.00,5.31,-3.37,9.81,0.02,0.00,0.00,2.37,86.00,106.81,0.62,5.12,-3.44,6,4
1772042920.730035,259185,0.05,-0.34,0.10,45.50,69.19,242.75,2.87,-4.25,9.38,0.03,-0.03,-0.02,2.19,85.69,106.19,1.62,-1.75,0.06,6,4
1772042920.920378,259375,-0.15,-0.01,-0.03,51.69,69.12,241.87,-11.50,-14.63,2.44,0.04,0.04,0.04,2.19,85.81,105.87,1.19,-1.50,0.44,7,5
1772042921.111518,259566,-0.16,-0.04,0.07,55.63,69.81,242.44,-4.37,-0.94,-2.69,0.06,-0.05,-0.01,2.06,86.06,106.19,-1.56,-2.44,-0.69,6,6
1772042921.302499,259757,0.02,0.08,-0.01,56.00,70.31,243.69,-4.62,-5.50,-0.75,0.02,-0.01,0.06,2.06,86.00,106.12,3.19,-2.69,0.00,7,6
1772042921.493158,259947,-0.22,0.02,-0.12,59.56,70.87,244.25,-4.75,-3.25,-1.50,0.00,-0.05,0.04,2.06,85.87,106.12,-2.44,0.56,-0.44,6,6
1772042921.683252,260138,0.00,0.17,0.01,60.06,71.19,245.25,-0.44,2.69,0.31,-0.01,0.02,0.05,2.00,85.87,106.37,0.37,-0.06,-0.44,7,7
1772042921.873612,260328,-0.11,-0.02,0.02,59.69,71.00,244.87,1.06,-1.75,0.75,0.03,0.00,0.05,2.00,85.81,106.25,-0.75,-0.69,0.13,6,7
1772042922.064524,260519,-0.05,0.08,-0.01,59.38,71.12,245.19,-0.44,2.12,-1.50,0.07,0.00,0.02,2.06,85.81,106.31,-0.44,-0.31,1.19,5,6
1772042922.255457,260710,-0.31,0.29,-0.19,55.63,71.06,245.31,14.94,12.69,-6.87,-0.02,-0.01,0.19,2.31,85.62,105.94,1.50,2.50,1.87,5,6
1772042922.446002,260900,0.19,-0.24,0.21,47.56,70.37,244.50,-0.56,2.25,-1.12,0.01,0.00,0.04,2.56,85.44,105.75,-0.69,-0.75,0.69,5,6
1772042922.636447,261091,0.00,-0.04,0.01,48.44,70.62,244.94,-3.19,-5.44,0.50,0.01,0.04,0.03,2.81,85.37,105.62,0.56,-0.31,3.12,6,6
1772042922.826980,261281,0.05,0.23,0.05,52.00,71.25,246.44,-13.06,-5.00,-0.81,-0.02,0.04,-0.02,3.00,85.25,105.31,-0.69,-1.12,-0.19,5,4
1772042923.017110,261472,-0.02,-0.04,-0.02,54.50,71.87,246.75,-0.81,-5.19,2.50,0.06,0.01,0.04,2.87,85.69,105.62,0.19,1.81,0.00,5,4
1772042923.208607,261663,0.34,-0.27,0.75,58.06,72.25,247.06,-8.63,-10.31,-2.31,-0.03,0.22,-0.38,3.00,85.56,105.37,2.62,-5.37,0.50,5,4
1772042923.399531,261854,-0.27,0.09,-0.27,65.31,73.37,247.94,-0.69,1.25,-1.87,0.00,-0.02,0.02,3.25,85.12,105.12,-2.31,1.44,-0.25,6,4
1772042923.590192,262045,0.12,0.11,0.00,62.19,73.62,248.69,-0.25,5.62,-0.81,0.02,-0.01,0.13,3.31,85.06,105.25,-0.81,0.44,0.69,6,3
1772042923.779775,262234,-0.03,0.05,-0.02,60.44,73.44,248.56,1.37,2.81,0.75,0.00,-0.01,0.05,3.31,85.06,105.25,-0.56,-1.00,0.06,7,3
1772042923.969927,262425,0.02,0.04,0.10,58.81,73.12,248.44,-1.00,2.00,0.37,0.00,0.05,0.02,3.31,85.12,105.50,-2.12,0.00,-0.69,7,3
1772042924.161485,262616,0.00,0.00,0.03,58.50,72.87,248.44,0.88,1.62,0.75,-0.04,0.05,0.10,3.25,85.19,105.87,-1.12,0.13,-0.69,8,3
1772042924.352616,262807,-0.07,0.09,0.00,57.81,72.75,248.44,0.81,1.25,-0.88,0.00,0.05,0.04,3.12,85.25,106.00,1.00,0.31,-0.19,7,3
1772042924.543693,262998,0.00,-0.11,0.05,55.38,72.44,248.12,4.37,4.62,-0.13,0.00,0.02,0.08,3.19,85.19,105.81,0.50,-0.50,-0.06,7,2
1772042924.732947,263188,0.04,-0.04,0.09,52.25,72.12,247.81,4.00,2.12,-1.50,0.02,0.02,0.03,3.25,85.19,105.69,0.56,-0.75,0.37,6,3
1772042924.923161,263378,-0.17,0.27,-0.09,49.31,71.81,247.56,8.63,9.38,-1.69,0.00,-0.22,0.26,3.25,85.19,105.62,0.94,0.62,-1.00,6,2
1772042925.115076,263570,0.01,-0.17,0.13,42.81,71.00,246.31,9.06,4.25,-0.69,0.02,0.12,-0.13,3.00,85.37,105.37,9.00,5.06,2.19,6,2
1772042925.306525,263761,-0.02,-0.30,0.10,41.63,70.56,245.50,0.06,-6.12,2.31,0.02,-0.07,-0.02,3.00,85.00,105.12,-8.13,-1.50,-3.31,5,2
1772042925.497517,263952,0.07,0.14,0.04,44.25,70.69,246.25,-5.50,-3.50,-0.44,-0.01,0.00,0.04,2.87,85.06,105.81,0.50,0.75,1.56,4,2
1772042925.687124,264142,0.00,0.01,0.00,46.25,71.50,246.69,-5.19,-3.44,0.50,-0.02,0.00,0.06,2.87,85.12,105.87,-1.81,-0.25,-1.44,4,2
1772042925.876402,264331,-0.10,0.20,0.05,48.88,71.50,247.19,-0.31,0.94,1.75,-0.05,0.00,0.00,2.69,85.81,106.12,-3.50,-9.25,-3.37,4,2
1772042926.068690,264523,0.07,-0.03,0.18,49.38,71.50,246.87,1.37,-1.62,2.87,0.02,-0.01,0.00,2.75,85.75,105.69,-1.12,-0.88,-1.87,3,2
1772042926.260621,264715,-0.15,0.05,-0.12,52.88,71.81,246.69,-3.44,-2.81,1.12,0.00,0.00,0.08,2.75,85.50,105.87,1.56,0.94,1.75,4,1
1772042926.453291,264908,-0.02,0.00,-0.02,52.75,72.12,246.87,1.12,0.31,-0.75,0.01,0.00,0.03,3.00,85.31,105.44,-0.56,-0.75,0.13,4,2
1772042926.644184,265099,-0.03,0.03,0.00,52.00,71.94,246.94,2.12,4.62,1.06,-0.01,0.01,0.04,3.00,85.31,105.37,1.06,0.88,0.31,5,1
1772042926.833993,265288,0.00,0.15,0.03,49.88,71.44,246.81,0.37,1.56,-0.88,0.03,-0.02,0.25,2.94,85.31,105.31,0.25,-1.44,-0.81,6,1
1772042927.027481,265482,-0.01,-0.07,0.17,49.44,71.12,246.12,2.94,1.62,3.37,0.07,-0.06,0.04,2.81,85.37,105.56,0.75,3.94,1.94,6,1
1772042927.218600,265673,-0.08,0.20,-0.02,49.75,71.06,246.12,-4.81,-1.69,-1.56,-0.02,-0.01,0.12,2.81,85.37,105.69,0.44,0.62,0.50,5,1
1772042927.409432,265864,-0.03,0.01,-0.04,51.25,71.50,246.44,-3.56,-3.62,-0.44,0.00,-0.04,-0.05,2.81,85.25,105.50,2.12,1.94,1.12,5,1
1772042927.598999,266053,-0.02,0.02,-0.03,51.38,71.69,246.81,-1.81,-1.87,-2.00,0.03,0.00,0.06,2.81,85.25,105.50,1.19,-1.37,-1.06,5,1
1772042927.788459,266243,-0.19,0.03,-0.02,54.69,72.50,247.50,-8.56,-7.37,-0.75,-0.01,-0.01,0.04,2.50,85.44,105.75,-2.44,-2.06,-2.12,4,1
1772042927.980367,266435,0.02,-0.04,0.13,54.19,72.62,248.56,0.56,8.56,0.44,0.00,-0.05,0.05,2.37,85.81,106.25,-3.56,-1.00,1.00,4,1
1772042928.171729,266626,0.05,-0.13,0.05,52.63,72.44,249.69,-9.06,-0.50,-4.81,-0.02,0.01,-0.03,2.44,86.12,106.87,-1.25,-1.37,-0.13,4,1
1772042928.362002,266817,0.05,0.22,0.05,52.38,73.06,252.19,-4.69,0.50,-1.37,0.01,0.00,0.07,2.44,86.06,106.94,0.00,1.06,0.81,5,1
1772042928.553005,267008,-0.08,0.00,-0.06,52.44,73.25,252.25,0.50,-0.69,-1.06,0.02,-0.03,0.09,2.62,85.81,106.75,-0.25,0.75,1.19,4,1
1772042928.742068,267197,-0.10,0.25,-0.11,50.81,73.31,252.44,3.06,4.56,-0.06,-0.02,0.00,0.09,2.75,85.69,106.56,0.88,1.50,0.44,4,2
1772042928.933619,267389,0.01,0.09,0.05,43.56,72.31,250.69,24.37,12.75,-0.75,-0.03,0.00,0.14,2.81,85.50,106.31,1.69,1.06,0.06,4,2
1772042929.124515,267579,-0.06,-0.08,0.08,37.38,71.44,247.12,24.94,-1.75,1.06,0.00,0.00,0.07,2.75,85.44,106.00,1.75,-0.50,0.06,4,2
1772042929.315084,267770,0.00,-0.33,0.14,36.88,71.06,244.81,-5.69,2.56,4.06,-0.01,-0.01,0.07,2.87,85.37,105.81,-1.44,0.06,0.75,5,2
1772042929.504737,267959,0.00,-0.23,0.19,44.94,70.81,247.19,-45.19,-9.31,4.00,-0.08,0.00,0.00,2.87,85.50,105.87,-2.31,-1.87,-1.37,5,2
1772042929.693777,268148,0.00,0.60,-0.07,52.06,71.69,252.37,-10.19,0.00,-3.81,0.00,0.02,0.14,2.81,85.62,106.44,-0.13,2.12,1.12,5,3
1772042929.886486,268341,0.02,-0.12,0.01,51.69,72.69,252.31,5.50,-3.81,-1.06,0.02,-0.13,0.31,3.06,85.12,105.94,2.00,2.25,1.06,5,2
1772042930.077666,268532,0.08,0.12,-0.10,53.69,73.62,252.31,-0.13,-7.69,-3.31,-0.02,0.00,0.13,3.00,84.94,105.31,4.69,-0.75,-1.69,5,3
1772042930.268317,268723,-0.38,-0.09,-0.17,58.25,74.37,250.56,15.38,-8.44,4.12,0.02,-0.13,0.03,3.00,85.00,105.06,1.12,-0.31,1.00,6,4
1772042930.457759,268912,-0.10,0.28,-0.01,52.88,74.00,249.44,8.00,15.81,-5.75,0.01,0.01,0.05,2.94,85.06,104.94,-1.94,-1.81,-0.81,6,3
1772042930.646987,269102,0.34,0.03,0.29,40.69,72.75,248.00,26.75,8.38,-1.44,-0.01,-0.03,0.15,2.87,85.06,105.06,1.50,-2.50,0.50,7,4
1772042930.839669,269295,-0.04,-0.15,0.12,38.06,72.31,245.69,-3.37,3.37,1.19,0.10,-0.04,0.02,2.75,85.00,105.31,1.19,4.75,0.44,7,4
1772042931.031797,269485,0.09,-0.09,0.14,39.69,72.06,245.56,-3.75,-2.06,2.56,0.06,-0.13,-0.09,2.62,84.50,104.94,6.25,0.88,-2.69,8,4
1772042931.221583,269676,-0.09,-0.07,0.10,43.75,71.56,246.06,-11.38,2.06,9.63,-0.04,0.11,0.37,2.00,84.62,106.00,-3.50,-1.75,-1.37,7,4
1772042931.411234,269866,-0.06,-0.09,0.02,49.94,70.62,246.44,-8.75,-6.75,6.50,-0.04,-0.14,0.07,2.19,85.00,105.75,-8.81,-3.50,1.25,8,4
1772042931.600628,270055,0.00,0.04,0.04,56.00,71.75,247.94,-17.44,-7.62,-6.44,0.01,0.03,0.07,2.31,85.37,107.50,-7.06,0.37,-0.44,8,4
1772042931.793102,270248,-0.09,0.28,-0.06,56.19,73.31,251.06,-1.37,0.13,-3.44,0.01,-0.04,0.05,2.56,85.19,107.31,0.31,-0.94,1.69,7,5
1772042931.983449,270438,0.08,0.10,0.03,54.75,73.62,251.87,-0.75,0.88,-1.81,0.04,-0.05,0.11,2.81,85.00,106.87,1.25,0.69,1.06,6,4
1772042932.174356,270629,-0.01,0.08,-0.03,54.50,73.81,251.87,2.25,1.44,0.81,-0.01,-0.05,0.05,2.87,84.94,106.75,0.56,0.37,0.25,6,3
1772042932.363749,270819,-0.05,0.17,-0.02,52.56,73.50,251.31,7.81,4.44,0.13,0.00,0.00,0.07,2.81,84.87,106.56,2.50,1.06,-0.13,6,3
1772042932.553096,271008,0.13,0.10,0.02,46.13,72.50,249.00,28.69,12.19,3.50,0.04,-0.02,0.29,2.75,84.56,106.00,3.87,0.75,0.06,5,3
1772042932.746054,271201,0.12,-0.34,0.30,41.13,70.87,245.56,5.00,4.87,0.94,0.00,-0.12,0.30,2.87,84.44,104.87,2.50,1.50,-1.06,6,2
1772042932.936621,271392,0.20,0.12,-0.02,41.63,70.62,245.56,-3.56,7.31,1.56,0.03,-0.05,0.21,2.50,84.44,105.56,3.56,0.25,0.25,5,2
1772042933.127466,271582,0.25,-0.21,0.41,42.94,69.87,245.50,-12.56,0.00,5.81,0.04,0.01,0.22,2.50,84.44,105.87,-0.37,-2.00,0.44,5,2
1772042933.317692,271772,-0.34,0.02,-0.08,51.38,70.87,246.87,-12.13,-12.31,-1.87,-0.02,0.00,-0.12,2.50,84.75,105.87,-3.31,-1.56,-0.06,4,2
1772042933.506669,271962,0.04,-0.09,0.06,51.69,72.25,249.94,-16.12,3.56,-9.50,0.01,-0.14,0.06,2.62,84.69,106.25,0.06,2.25,0.88,5,2
1772042933.699108,272154,0.34,1.16,0.12,46.63,73.19,257.37,-17.87,1.75,-5.44,0.00,-0.01,0.08,2.62,84.37,106.31,-1.75,-1.19,2.50,5,2
1772042933.890347,272345,-0.10,-0.03,-0.05,48.69,74.00,256.87,4.94,-3.87,2.50,0.03,-0.04,0.02,2.87,84.31,106.12,-0.31,-0.37,-1.25,6,3
1772042934.080552,272535,0.00,0.13,-0.03,50.31,73.94,256.06,1.50,-1.44,3.19,0.02,-0.03,0.08,2.69,84.37,106.44,-0.31,-1.00,0.25,7,3
1772042934.270058,272725,-0.14,0.30,-0.18,50.25,73.75,255.19,7.56,3.50,1.50,-0.01,-0.01,0.04,2.56,84.50,106.37,0.94,0.44,-0.81,7,3
1772042934.459092,272914,-0.01,0.08,0.06,42.69,72.37,251.94,32.94,9.44,4.87,0.00,-0.04,0.05,2.50,84.37,106.00,3.62,0.06,0.50,7,3
1772042934.652007,273107,0.00,-0.34,0.21,37.81,70.81,246.94,17.94,1.81,3.56,0.05,-0.04,0.05,2.31,84.25,105.56,4.69,-0.69,-1.94,6,4
1772042934.842772,273298,0.00,-0.05,0.09,38.69,69.87,245.25,3.19,2.50,5.69,0.06,-0.04,0.09,1.94,84.25,105.50,2.19,2.31,-0.19,7,4
1772042935.034047,273489,-0.05,-0.07,0.06,39.69,69.50,244.44,-1.75,-4.50,0.56,0.04,-0.01,-0.09,1.87,84.19,105.37,-1.87,1.25,-0.94,7,4
1772042935.223508,273678,0.10,-0.25,0.28,43.50,69.25,245.00,-24.62,-8.25,1.69,-0.01,-0.01,0.22,1.87,84.19,105.94,3.25,0.13,2.81,7,4
1772042935.413082,273868,-0.22,0.28,-0.16,52.94,70.87,248.94,-21.19,-5.62,-6.37,0.00,-0.05,0.00,2.19,84.19,105.87,-6.87,0.44,-0.13,7,4
1772042935.605138,274060,0.16,0.30,0.00,51.50,72.69,252.31,-7.00,-1.62,-5.94,0.02,-0.08,0.11,2.31,83.75,106.19,1.19,1.81,1.87,7,4
1772042935.796595,274251,-0.18,0.10,-0.16,54.25,73.37,253.00,-4.94,-2.00,-0.50,0.00,-0.04,0.03,2.37,83.75,106.62,-2.25,-0.31,-0.94,6,3
1772042935.987178,274442,0.03,0.11,-0.03,53.75,73.31,253.25,4.94,2.00,1.87,-0.02,-0.08,0.08,2.31,83.75,106.62,0.94,-0.13,-0.37,5,3
1772042936.176586,274632,0.02,-0.07,0.04,51.31,72.75,251.94,7.50,4.62,1.06,0.00,-0.02,0.10,2.31,83.75,106.62,0.44,-1.12,-0.50,4,3
1772042936.366639,274822,0.00,0.07,0.09,49.69,72.19,251.19,3.00,2.19,1.69,-0.03,0.00,0.01,2.19,83.87,106.62,0.88,-0.62,-0.69,4,4
1772042936.558371,275014,0.01,0.04,-0.07,48.19,71.50,250.37,4.87,5.06,3.25,0.02,-0.04,0.06,2.19,83.94,106.50,2.00,0.31,-0.19,5,2
1772042936.749791,275205,-0.02,-0.03,0.02,43.13,70.12,248.69,17.44,6.12,3.31,-0.06,0.02,0.10,1.94,83.94,106.44,-0.13,-0.88,-2.44,4,2
1772042936.941179,275396,0.04,-0.03,0.05,39.75,68.62,245.94,16.69,7.56,4.31,0.00,-0.05,0.01,1.75,84.00,106.25,0.62,-1.19,0.13,4,2
1772042937.130824,275586,-0.21,-0.07,0.46,46.38,68.87,243.44,-19.87,-38.50,15.00,0.00,0.00,-0.29,1.81,84.56,106.25,2.12,-0.37,0.88,4,2
1772042937.320401,275775,-0.23,-0.11,-0.08,54.81,69.94,244.25,-5.94,8.25,-10.00,-0.01,-0.04,0.06,1.81,84.50,106.12,-2.19,-0.25,0.19,5,3
1772042937.512212,275967,0.14,0.00,0.09,50.63,70.87,248.12,-17.06,1.50,-9.75,0.00,-0.02,0.14,2.00,84.25,106.37,-0.44,0.94,1.12,5,2
1772042937.704331,276159,-0.01,0.53,-0.09,52.38,72.25,252.56,-14.75,-0.94,-4.69,-0.01,-0.03,0.07,2.12,84.25,106.44,-1.62,0.25,0.81,5,2
1772042937.895914,276351,-0.12,0.08,-0.10,51.69,72.81,253.00,7.31,2.75,0.88,-0.03,-0.07,0.05,2.31,84.12,106.25,0.50,-0.13,0.00,5,2
1772042938.086563,276542,0.06,0.10,0.04,45.63,72.00,251.37,23.37,14.13,0.44,-0.01,-0.03,0.16,2.25,84.06,106.25,0.94,1.06,0.13,6,2
1772042938.276191,276731,-0.01,-0.20,0.13,41.50,70.56,248.62,2.37,2.62,1.94,0.01,-0.09,0.14,2.12,84.25,106.19,1.25,-1.00,-2.31,6,2
1772042938.466877,276922,0.03,-0.11,0.27,41.94,69.94,248.19,0.31,2.12,3.87,0.04,-0.02,0.11,2.12,84.25,106.06,-0.81,0.88,0.56,6,2
1772042938.659989,277115,0.00,-0.24,0.10,45.06,70.00,248.50,-15.50,-8.69,-1.37,0.00,-0.02,0.08,2.19,84.12,106.19,-0.75,0.75,1.00,5,2
1772042938.852243,277307,0.00,0.20,-0.08,51.19,71.62,251.19,-8.88,-7.37,-5.19,-0.02,0.00,0.10,2.37,83.94,106.44,-2.62,1.06,1.00,5,3
1772042939.043843,277499,-0.07,0.14,-0.08,53.19,73.00,252.44,-1.25,-3.81,-2.87,-0.05,-0.04,0.04,2.56,83.81,106.44,-0.56,-1.25,1.25,5,3
1772042939.234443,277689,-0.02,0.05,0.04,53.13,73.62,252.56,1.94,-0.88,-0.88,-0.02,-0.01,0.06,2.75,83.81,106.25,-0.06,0.50,0.88,4,2
1772042939.425031,277880,-0.05,0.07,-0.03,53.31,73.69,252.44,0.75,0.50,0.31,-0.02,-0.02,0.09,2.75,83.75,106.25,-0.81,0.37,0.19,5,3
1772042939.616104,278071,0.03,0.06,-0.04,53.00,73.69,252.44,0.19,0.25,-0.06,-0.05,-0.03,0.16,2.75,83.69,106.19,1.19,-0.56,-0.69,5,3
1772042939.806696,278262,-0.16,0.08,-0.09,54.00,73.50,252.12,0.06,1.75,2.62,0.00,0.02,0.10,2.50,83.94,106.44,-0.75,-0.25,-1.56,4,3
1772042939.997319,278452,-0.22,0.24,-0.11,51.19,72.69,251.69,6.25,10.44,-1.00,-0.04,0.00,0.01,2.31,84.12,106.50,2.06,0.00,-0.94,3,3
1772042940.186851,278642,0.08,0.14,0.10,39.88,70.75,249.81,28.25,15.44,0.94,-0.01,-0.03,0.17,2.25,84.00,106.12,3.19,-0.25,-0.31,3,3
1772042940.375964,278831,0.16,-0.28,0.30,34.44,68.75,246.12,13.19,3.12,6.69,0.00,0.00,0.05,2.12,84.06,105.62,2.50,0.13,-0.75,3,3
1772042940.568174,279023,0.01,-0.03,0.09,35.56,68.25,244.87,-2.31,0.88,3.50,-0.01,0.06,0.15,1.75,84.19,106.00,-0.25,0.44,-1.75,3,3
1772042940.759056,279214,-0.04,-0.34,0.06,38.44,68.31,244.25,-3.94,-8.31,4.87,-0.07,0.00,0.13,1.69,84.25,105.87,2.31,-2.06,1.37,3,2
1772042940.950164,279405,-0.09,0.24,-0.13,43.19,68.81,245.37,-8.00,-0.94,-2.50,0.03,-0.04,-0.02,1.75,84.50,105.31,-1.37,-2.81,0.75,4,1
1772042941.139265,279594,0.02,-0.04,0.11,42.63,68.81,246.00,-5.44,1.87,-1.81,0.00,0.01,0.09,1.75,84.87,105.87,-3.50,-0.69,-0.81,3,1
1772042941.330198,279785,-0.02,0.10,0.00,42.19,69.06,246.75,1.44,-3.19,-0.37,0.00,-0.10,0.07,1.81,84.87,105.75,-0.37,0.31,0.94,5,1
1772042941.521772,279977,-0.03,0.14,-0.07,42.00,69.19,247.12,-4.06,3.44,-2.56,0.01,-0.01,0.16,1.87,84.87,106.00,-0.69,-1.50,-0.37,5,2
1772042941.712320,280167,-0.04,0.12,-0.07,40.50,69.12,247.62,2.62,3.56,-0.25,0.00,-0.04,0.04,1.81,85.00,105.87,1.50,-0.06,-0.37,5,1
1772042941.902738,280358,0.02,-0.21,0.10,36.25,68.56,246.50,16.87,1.50,-1.56,-0.04,0.01,0.08,1.81,85.06,105.87,0.94,-1.62,0.37,6,1
1772042942.093321,280548,0.04,-0.18,0.13,33.94,68.19,245.37,-1.44,0.44,-0.06,-0.01,0.00,0.06,1.94,85.06,105.56,-0.44,-0.62,0.31,6,1
1772042942.284027,280739,0.04,-0.13,0.10,35.63,68.12,246.37,-13.25,-0.94,0.62,0.00,-0.03,0.07,2.00,85.00,105.69,-0.56,0.94,1.25,6,2
1772042942.474741,280930,-0.04,0.42,0.01,40.63,68.56,248.81,-15.25,-7.62,-2.37,-0.03,0.00,0.10,2.12,85.00,105.81,-1.25,0.62,0.56,6,2
1772042942.665625,281120,-0.02,-0.10,-0.10,41.00,69.62,249.44,2.00,-3.00,-1.37,-0.02,-0.05,0.16,2.37,84.56,105.56,-0.81,0.69,0.81,6,2
1772042942.855828,281311,-0.01,0.13,-0.06,41.44,70.25,249.87,-1.81,0.00,-2.12,0.00,-0.01,0.09,2.50,84.50,105.62,-0.81,0.13,0.56,6,2
1772042943.046405,281501,0.00,0.05,-0.03,41.00,70.44,250.25,-0.56,-0.62,0.13,-0.03,-0.02,0.11,2.56,84.44,105.62,0.37,0.44,-0.44,6,2
1772042943.236225,281691,-0.12,0.20,-0.14,40.56,70.19,250.00,4.44,5.00,-0.31,-0.01,-0.06,0.10,2.37,84.56,105.75,1.56,1.00,-1.37,5,3
1772042943.427808,281883,0.16,-0.27,0.22,36.06,69.37,248.50,9.31,3.19,4.25,-0.04,-0.02,0.09,2.12,84.56,105.81,1.69,-0.88,-1.31,5,2
1772042943.618391,282073,-0.01,-0.13,0.07,36.69,68.69,247.50,0.88,-1.56,2.37,-0.01,0.00,0.04,1.87,84.69,105.94,-1.31,-0.25,-0.88,5,3
1772042943.808687,282264,0.10,0.21,0.16,37.75,68.69,247.50,-3.62,-3.00,2.19,-0.17,0.00,0.04,1.75,84.31,106.00,4.69,7.00,1.69,5,3
1772042943.998953,282454,0.11,-0.23,0.26,41.56,69.56,246.81,-4.62,-11.75,-1.19,0.00,-0.10,0.33,2.25,83.75,104.75,-0.81,-0.31,0.37,5,3
1772042944.189498,282644,-0.22,0.49,-0.15,50.75,72.25,248.00,-10.94,-22.94,-6.25,-0.07,0.19,-0.03,1.69,83.94,105.37,13.44,1.25,2.06,5,3
1772042944.380731,282836,-0.18,-0.09,0.01,53.81,74.50,246.75,21.31,-2.50,4.12,0.03,-0.14,-0.08,2.19,83.75,102.56,5.75,5.62,2.19,5,3
1772042944.571945,283027,-0.08,-0.17,-0.13,54.13,73.69,244.62,-8.19,-4.25,3.44,-0.08,0.08,0.09,2.06,83.44,103.06,-4.06,-1.25,-2.94,7,3
1772042944.762510,283217,-0.04,0.16,-0.18,58.63,73.75,245.44,-4.06,-3.25,2.94,-0.02,0.00,-0.07,1.62,83.69,103.69,-0.44,-1.37,-2.44,7,4
1772042944.951354,283407,-0.06,0.01,-0.01,59.81,73.31,244.94,0.06,2.75,0.19,0.03,0.01,0.01,1.62,83.31,103.62,4.25,3.94,1.00,7,4
1772042945.143184,283598,-0.27,0.11,-0.13,55.81,73.12,245.06,6.62,10.06,-1.94,0.00,-0.05,0.00,1.75,83.12,103.12,0.81,0.75,1.19,7,3
1772042945.337085,283789,0.41,0.00,0.23,42.63,71.44,244.37,22.44,19.25,-3.50,-0.12,-0.01,-0.01,16.44,83.12,102.94,-5.81,-5.25,0.00,7,3
1772042945.524774,283980,0.15,-0.06,0.22,37.81,69.75,242.19,3.87,0.62,2.44,-0.01,0.00,0.05,2.00,83.56,103.31,7.25,-2.37,3.12,8,3
1772042945.715018,284170,0.01,-0.06,0.26,37.19,69.50,241.37,0.69,3.06,-4.37,-0.02,0.01,0.00,2.50,83.81,102.62,1.37,0.62,1.62,8,2
1772042945.905183,284360,-0.13,-0.13,0.10,36.38,69.56,241.94,-4.50,-1.00,0.31,-0.01,0.01,-0.01,2.50,83.94,103.06,-4.94,-0.13,-0.88,9,2
1772042946.095799,284551,0.05,-0.06,0.09,37.31,69.37,243.06,-12.13,-2.81,1.62,0.00,-0.01,0.21,2.56,83.81,103.50,0.50,-2.62,-0.06,10,4
1772042946.287619,284743,-0.02,0.10,0.04,41.31,69.87,244.50,-10.38,-5.06,1.62,0.02,-0.03,0.03,2.50,84.19,103.56,-2.44,-1.25,-0.62,10,4
1772042946.477949,284933,0.10,0.13,0.09,43.06,70.31,245.19,-1.69,-1.87,-1.62,0.01,0.00,0.10,2.50,84.37,103.69,1.44,0.81,0.13,8,4
1772042946.668409,285123,-0.03,-0.02,-0.01,44.69,70.81,245.12,-0.88,-2.94,-1.00,0.00,-0.02,0.00,2.50,84.37,103.37,1.12,-1.44,0.81,7,3
1772042946.858933,285314,-0.03,0.12,0.00,44.31,71.12,245.62,-0.56,2.06,-2.81,-0.01,0.00,0.04,2.62,84.31,103.31,-0.31,-0.88,-0.62,8,4
1772042947.049470,285505,-0.03,0.08,-0.03,41.19,70.62,245.62,9.38,7.75,-0.19,0.01,-0.01,0.15,2.56,84.37,103.19,2.75,-0.19,0.44,7,5
1772042947.240358,285696,0.02,0.06,0.13,36.81,69.81,244.81,9.25,5.75,-3.50,0.02,0.01,0.03,2.75,84.56,102.25,2.81,-0.62,0.69,7,5
1772042947.431483,285886,-0.04,-0.06,0.09,34.63,69.62,244.31,-2.31,-1.12,0.69,0.00,0.02,-0.04,2.69,84.81,102.06,-1.25,-1.44,-1.56,7,4
1772042947.621595,286077,-0.02,-0.05,0.20,36.63,69.69,244.75,-11.25,-2.56,1.94,-0.02,-0.03,-0.09,2.94,84.75,101.31,5.94,2.00,1.50,6,5
1772042947.811148,286266,-0.10,0.12,-0.08,40.25,70.44,246.25,-5.31,-3.37,-3.06,0.02,0.05,0.03,2.94,84.75,101.50,-2.00,0.56,-0.25,6,5
1772042948.002409,286458,0.07,0.03,0.09,39.81,70.56,246.87,-1.62,1.00,-0.88,-0.01,0.00,0.05,2.81,84.87,102.06,-2.81,-0.81,-2.12,4,3
1772042948.193872,286649,-0.07,-0.03,0.00,40.69,70.62,247.25,-3.31,1.00,-1.75,-0.03,0.05,0.00,2.62,85.06,103.12,-3.19,0.00,0.19,4,2
1772042948.384283,286840,-0.05,0.23,-0.08,38.81,70.62,247.87,6.62,4.81,-4.00,-0.01,0.00,0.01,2.75,84.94,103.06,0.44,1.00,-0.13,4,3
1772042948.574466,287030,0.17,-0.15,0.20,34.31,70.06,246.94,7.37,1.06,1.75,-0.01,0.00,-0.01,2.75,85.00,103.00,-0.56,-0.81,-0.56,4,3
1772042948.764769,287220,0.00,-0.06,0.00,34.56,70.00,246.69,-1.37,-0.81,-2.19,-0.02,0.01,0.00,2.75,85.06,103.06,0.75,0.25,0.13,4,2
1772042948.956137,287411,0.05,0.05,0.09,34.06,70.00,246.75,3.00,0.75,1.25,-0.01,-0.02,0.07,2.75,85.00,102.94,-0.31,0.06,-0.06,4,1
1772042949.147136,287602,0.04,0.00,0.08,34.69,69.94,246.44,-1.87,-0.88,-0.25,0.00,0.02,0.09,2.75,84.94,103.06,-1.37,-0.69,-0.06,3,2
1772042949.337713,287793,-0.10,0.01,-0.02,36.88,70.31,247.00,-11.31,-5.87,2.87,0.00,0.00,0.01,2.75,84.87,103.19,-0.06,-0.31,0.25,3,2
1772042949.528350,287983,-0.08,-0.11,-0.09,38.38,70.56,247.50,-0.62,0.06,0.56,-0.06,0.00,0.02,2.69,85.00,103.25,2.00,-1.50,-0.19,3,2
1772042949.718852,288174,0.02,0.10,0.01,38.31,70.50,247.69,-0.44,-0.06,0.19,-0.01,-0.01,0.07,2.62,85.06,103.19,1.06,-0.06,0.25,4,2
1772042949.909701,288365,-0.03,0.02,0.02,38.00,70.44,247.50,1.19,3.19,-0.25,-0.02,-0.01,0.06,2.62,85.12,103.19,-0.62,-0.56,0.06,4,2
1772042950.100119,288556,0.03,0.09,0.00,36.06,70.00,247.56,3.75,5.25,-0.75,0.00,0.01,0.06,2.62,85.12,103.12,0.75,-0.62,-0.62,4,3
1772042950.290830,288746,0.05,-0.04,0.06,33.75,69.25,246.69,8.38,4.06,1.50,0.05,-0.01,0.08,2.56,85.19,103.06,1.12,0.37,-0.94,4,3
1772042950.480860,288936,0.01,0.01,0.17,33.50,68.87,246.19,-1.94,1.44,1.25,-0.02,0.05,0.02,2.37,85.44,103.37,-0.94,0.00,-1.25,4,3
1772042950.671385,289126,0.21,-0.08,0.23,37.44,68.87,246.75,-21.56,-5.37,3.69,-0.02,-0.02,0.05,2.12,85.50,103.81,1.00,-1.12,-0.56,4,3
1772042950.862821,289318,-0.03,-0.01,-0.05,40.50,69.69,247.37,3.62,-0.37,-0.88,0.01,-0.03,0.15,2.19,85.37,103.81,-0.37,0.56,0.31,4,3
1772042951.053830,289509,-0.02,0.14,-0.02,40.56,69.81,247.31,0.44,-2.12,-0.25,-0.04,-0.03,0.09,2.12,85.37,103.75,0.25,0.56,-0.50,4,3
1772042951.244267,289700,0.02,0.03,0.03,41.06,69.81,247.12,-0.25,0.44,0.75,-0.06,0.05,0.04,2.00,85.56,103.87,1.62,-0.81,-0.94,4,3
1772042951.434110,289889,-0.04,-0.02,0.04,40.69,69.81,246.75,4.62,-1.12,1.75,-0.02,-0.03,0.09,1.94,85.56,103.75,0.88,0.13,0.25,4,2
1772042951.623629,290079,-0.06,0.07,-0.04,39.75,69.56,246.37,3.00,4.50,-1.94,0.00,-0.06,0.18,2.00,85.62,103.62,1.12,-2.62,0.50,3,2
1772042951.815749,290271,0.08,-0.09,-0.01,33.69,69.31,245.44,18.19,3.56,-1.37,0.00,0.08,-0.02,1.94,86.00,103.37,1.06,-2.12,0.13,5,3
1772042952.007159,290462,0.17,0.04,0.16,32.06,68.37,244.75,-0.06,0.56,-1.37,0.00,-0.08,-0.10,2.12,86.00,102.81,-1.19,-8.13,-2.25,4,2
1772042952.197729,290653,0.04,0.09,0.25,31.50,68.19,245.00,-1.62,2.37,4.00,0.01,0.06,0.05,1.81,86.69,103.31,-1.81,-0.50,0.25,5,2
1772042952.387420,290843,0.16,-0.27,0.18,34.00,68.37,245.00,-11.69,-10.38,-2.37,0.00,-0.02,0.01,1.94,86.87,103.37,0.00,-1.62,0.25,5,2
1772042952.576814,291032,0.00,0.38,-0.11,37.88,69.94,247.12,-2.06,-2.00,-4.62,0.00,-0.03,0.05,2.06,86.69,103.37,0.50,1.00,1.75,5,2
1772042952.769166,291224,0.11,0.04,0.10,36.38,70.25,247.44,1.06,1.50,-1.31,-0.06,-0.02,0.16,2.37,86.19,103.12,-2.81,-0.88,-0.19,6,3
1772042952.960378,291416,-0.20,0.15,-0.08,37.38,70.50,247.87,-8.44,0.81,-0.75,0.00,0.02,0.03,2.25,86.50,103.50,0.94,1.75,0.50,5,3
1772042953.151773,291607,-0.09,-0.04,-0.11,36.88,70.06,248.25,1.37,0.88,-0.81,-0.01,-0.02,0.03,2.19,86.44,103.56,-1.00,-0.75,-0.94,6,3
1772042953.340795,291796,0.05,0.20,0.00,33.56,69.44,248.06,14.19,10.50,-0.81,0.00,-0.02,0.07,2.12,86.50,103.62,0.50,-0.37,-0.94,6,3
1772042953.529784,291985,0.07,-0.15,0.23,30.62,68.12,246.37,1.25,3.87,3.94,0.00,-0.02,0.00,1.87,86.62,103.87,0.06,0.37,-2.00,7,3
1772042953.721673,292177,0.00,-0.09,0.05,31.62,67.87,245.75,2.31,-2.19,1.37,0.00,0.06,0.01,1.75,86.69,103.87,0.13,0.94,0.19,5,3
1772042953.913907,292369,-0.11,-0.04,-0.05,32.31,68.06,245.31,-0.50,-0.13,-0.31,-0.01,-0.02,0.06,1.75,86.56,103.81,0.75,0.81,0.75,5,2
1772042954.105421,292561,0.01,-0.04,0.02,32.13,67.94,245.56,-3.12,1.25,-1.62,0.06,-0.05,0.06,1.81,86.50,104.00,-0.50,0.62,0.37,5,3
1772042954.294992,292750,0.16,-0.15,0.19,32.38,68.19,246.12,-5.12,-4.12,0.75,0.00,-0.09,-0.01,1.87,86.44,104.00,-1.00,-0.31,0.31,6,3
1772042954.484689,292940,-0.12,0.36,-0.11,37.69,69.06,247.50,-9.88,-7.50,-1.37,-0.02,0.07,-0.02,1.94,86.44,104.00,0.06,-0.44,1.25,5,3
1772042954.676543,293132,0.20,-0.26,0.03,36.50,69.62,247.81,2.12,-3.25,-4.12,0.00,-0.05,-0.09,2.62,85.69,103.31,-1.31,0.62,1.62,5,2
1772042954.867787,293323,0.00,0.34,-0.17,35.88,70.37,248.87,-2.56,-2.56,-1.62,-0.06,-0.02,0.07,2.56,85.62,103.69,0.81,2.06,-0.75,5,2
1772042955.058930,293514,0.04,-0.04,-0.05,35.06,70.31,248.62,3.87,3.56,1.00,0.01,-0.04,0.14,2.56,85.44,103.50,-0.06,-0.69,-0.50,6,2
1772042955.248314,293704,0.00,0.19,-0.03,33.63,69.62,248.19,5.81,6.37,0.75,0.04,-0.04,0.09,2.37,85.69,103.62,0.00,-2.37,-1.31,6,3
1772042955.437628,293893,-0.02,-0.26,0.12,31.44,68.62,246.75,3.06,-1.06,2.25,-0.05,0.02,-0.07,2.25,86.00,103.50,0.75,-3.12,0.44,5,3
1772042955.629762,294085,0.06,-0.33,0.14,32.13,68.44,246.81,-5.75,-1.00,0.69,0.00,-0.01,0.03,2.25,86.19,103.69,-2.19,-1.81,-1.37,6,3
1772042955.821073,294276,-0.22,0.37,-0.10,37.06,69.06,248.37,-6.19,-7.87,-0.13,0.00,0.02,0.00,2.12,86.31,104.00,-0.69,0.94,0.44,7,4
1772042956.013361,294468,0.07,-0.07,0.00,37.25,69.44,248.50,-1.19,-0.31,-1.56,0.00,-0.07,0.09,2.25,86.19,104.00,-1.87,-1.31,-0.31,7,4
1772042956.205285,294661,0.00,0.12,-0.07,37.56,69.81,249.19,-0.75,0.50,0.25,0.00,-0.04,0.09,2.25,86.12,104.06,0.44,-0.31,0.13,7,4
1772042956.397741,294853,-0.01,0.11,-0.12,36.19,69.50,248.94,7.19,7.75,-0.62,0.04,-0.05,0.13,2.25,86.19,104.00,1.37,-0.13,0.13,7,4
1772042956.586916,295042,0.12,0.00,0.07,31.62,68.50,247.44,15.13,6.75,1.00,-0.02,-0.04,0.12,2.19,86.25,103.75,2.62,-1.00,-0.69,7,4
1772042956.776030,295232,0.00,-0.02,0.08,30.75,67.69,246.12,2.06,2.12,2.06,0.03,0.00,0.08,1.94,86.62,103.94,-0.44,0.44,-1.44,7,4
1772042956.969250,295425,0.01,0.00,0.03,30.87,67.37,245.62,2.37,-0.75,2.25,0.01,0.00,0.05,1.75,86.75,103.94,1.00,0.37,-0.31,6,3
1772042957.161116,295617,-0.02,-0.02,0.01,31.37,67.31,244.87,2.12,-1.19,0.75,-0.01,-0.01,0.04,1.75,86.75,103.62,0.69,0.19,-0.25,5,3
1772042957.352800,295808,-0.04,-0.02,0.01,31.50,67.25,244.56,0.31,-0.44,-0.06,0.00,-0.03,0.07,1.75,86.75,103.56,-0.06,-0.37,0.25,5,3
1772042957.542705,295999,0.02,-0.02,0.06,31.44,67.19,244.50,0.19,0.00,0.62,-0.02,0.01,0.05,1.75,86.69,103.56,0.88,0.88,0.00,4,3
1772042957.734341,296190,0.02,-0.05,0.00,31.50,67.31,244.31,1.06,-0.81,-0.88,-0.03,-0.04,0.13,1.69,86.75,103.50,0.00,0.56,-0.25,3,2
1772042957.926115,296381,-0.07,-0.08,0.19,34.00,67.69,244.75,-23.94,-11.63,6.19,0.00,-0.02,-0.02,1.69,86.81,103.44,-1.00,-2.31,-1.00,4,1
1772042958.117652,296573,-0.16,0.06,-0.14,37.75,68.19,245.94,-1.69,0.31,-1.44,0.02,0.00,0.17,1.69,86.69,103.69,-0.25,0.50,0.62,4,1
1772042958.306803,296762,0.05,0.00,0.00,37.50,68.44,246.44,-0.75,-1.37,-1.69,-0.02,-0.04,0.04,1.75,86.69,103.69,0.06,-0.25,0.31,4,2
1772042958.497034,296952,-0.08,0.07,-0.10,37.06,68.37,246.56,1.50,4.75,-0.69,0.02,-0.05,0.06,1.75,86.81,103.75,-0.81,-0.69,-0.94,5,1
1772042958.687458,297143,0.06,0.02,0.11,32.31,67.19,246.19,12.69,8.75,-0.75,-0.01,-0.06,0.11,1.50,86.87,104.06,0.75,-0.81,-1.12,5,1
1772042958.878209,297334,0.21,-0.14,0.19,29.44,66.12,244.81,8.25,1.44,1.69,-0.04,0.01,0.03,1.37,87.00,104.06,-0.94,-2.31,-0.50,5,1
1772042959.068628,297524,0.10,-0.02,0.06,29.50,66.12,244.37,-1.44,0.06,-0.06,0.00,0.07,0.16,1.37,87.00,104.19,3.19,1.56,0.06,5,2
1772042959.259150,297714,0.00,-0.30,0.11,31.31,66.37,244.12,-6.12,-8.50,7.25,0.00,-0.15,-0.12,1.31,87.06,103.81,-5.25,-2.94,-1.06,6,2
1772042959.448633,297904,-0.06,0.51,-0.12,38.25,67.56,245.87,-10.88,-4.37,-4.50,-0.04,0.10,0.06,1.31,87.12,104.19,0.25,0.81,1.75,6,2
1772042959.637743,298093,-0.09,-0.10,-0.09,37.25,67.94,245.75,4.25,-1.12,1.56,-0.01,-0.09,0.12,1.69,86.75,103.69,0.13,1.19,1.56,5,2
1772042959.829543,298285,-0.01,0.07,-0.09,36.19,67.94,245.75,0.37,0.13,-2.06,0.00,-0.01,0.01,1.75,86.75,103.62,0.62,-1.37,0.56,7,5
1772042960.020456,298476,0.08,0.02,0.07,33.00,67.50,245.62,13.38,6.06,-2.81,0.06,-0.07,0.13,1.81,86.69,103.56,-0.06,-1.69,-1.12,7,5
1772042960.211318,298667,0.07,0.03,0.18,31.37,66.87,245.12,-2.69,1.19,1.87,0.00,0.02,0.07,1.56,86.87,104.06,-2.50,0.37,-1.62,7,5
1772042960.400804,298857,0.02,0.02,0.10,32.31,66.81,244.94,-0.13,-2.75,1.12,0.00,-0.02,0.06,1.44,86.62,104.25,-0.56,1.37,0.00,7,5
1772042960.590283,299046,0.14,-0.43,0.17,35.31,67.12,245.25,-18.81,-6.00,-0.19,0.01,-0.03,0.15,1.50,86.37,104.62,0.44,0.62,0.62,6,5
1772042960.782630,299238,0.00,0.13,-0.05,39.00,68.31,247.62,-0.31,0.13,-3.56,0.01,-0.05,0.25,1.56,86.25,104.69,-0.06,1.00,0.94,7,5
1772042960.973729,299429,-0.06,0.08,-0.05,38.25,68.75,247.75,3.25,0.56,-1.12,-0.02,-0.04,0.02,1.69,86.12,104.44,-0.31,-0.19,0.44,8,5
1772042961.164343,299620,0.00,0.18,-0.02,36.63,68.37,247.56,4.06,5.31,-0.31,0.00,-0.11,0.02,1.75,86.12,104.37,-0.19,-0.75,0.31,7,4
1772042961.353829,299809,-0.06,0.04,0.02,31.75,67.56,246.37,17.12,5.75,-2.12,0.01,-0.07,0.11,1.81,86.25,104.37,-0.44,-1.50,-0.37,8,4
1772042961.544757,300000,0.01,0.03,0.04,29.50,67.19,245.62,-3.44,1.62,1.25,0.02,-0.09,0.11,1.75,86.25,104.37,-0.94,0.31,-0.56,8,4
1772042961.736451,300192,0.01,0.05,0.06,30.50,67.19,246.00,-4.50,0.00,-1.31,-0.01,-0.02,0.08,1.69,86.44,104.69,-0.31,-0.44,-0.25,6,2
1772042961.926873,300382,0.14,-0.08,0.15,32.50,67.50,246.62,-13.00,-8.19,4.75,0.00,-0.13,0.04,1.81,86.37,104.50,-0.13,0.69,0.25,6,2
1772042962.117811,300573,-0.27,-0.17,-0.05,37.81,69.75,247.44,-11.69,-14.25,-5.25,0.00,-0.06,0.00,1.75,86.56,105.19,-1.12,0.44,1.62,5,2
1772042962.307105,300763,0.01,0.26,-0.10,39.81,71.56,250.06,-7.75,-3.75,-4.94,0.00,-0.04,0.12,2.00,86.31,105.19,-0.19,1.56,1.25,6,3
1772042962.498721,300954,-0.08,0.12,-0.13,39.88,72.31,250.50,4.50,0.62,0.88,-0.04,-0.12,0.09,2.25,86.00,104.87,-1.00,-0.13,0.75,7,4
1772042962.689455,301145,0.00,0.08,-0.02,39.00,72.00,250.06,0.50,1.25,0.31,0.00,-0.06,0.11,2.31,85.94,104.87,0.37,-0.06,-0.25,7,4
1772042962.879740,301336,0.00,0.00,0.04,38.38,71.69,249.69,0.50,1.19,1.25,0.00,-0.06,0.08,2.31,85.94,104.87,0.13,-0.31,0.13,6,3
1772042963.070742,301526,-0.10,0.12,-0.15,35.88,71.12,249.37,12.00,12.31,-2.37,0.02,-0.05,0.10,2.31,85.94,104.69,0.94,-0.56,0.06,7,3
1772042963.260307,301716,0.25,-0.27,0.24,29.44,69.12,248.00,7.12,7.44,1.56,-0.01,-0.06,0.08,2.31,85.94,104.56,0.69,-1.69,-0.88,7,3
1772042963.450643,301906,0.29,0.30,0.47,29.81,68.56,247.56,-0.81,-4.31,5.50,0.05,-0.08,-0.05,2.12,86.06,104.56,2.31,4.06,-1.12,7,3
1772042963.642777,302098,-0.22,0.13,-0.01,37.81,69.75,246.87,-17.56,-20.00,4.87,-0.02,0.02,-0.03,1.94,86.00,104.56,-1.94,1.19,1.00,7,3
1772042963.833446,302289,0.10,-0.02,-0.11,42.31,71.31,247.37,-1.94,-1.62,-3.12,-0.01,-0.01,0.22,2.37,85.31,104.44,-2.00,2.12,1.31,8,3
1772042964.023749,302479,-0.04,0.06,-0.08,42.38,71.87,248.19,-2.62,0.69,-0.88,-0.02,-0.06,0.07,2.44,85.00,104.69,-0.94,0.62,0.06,7,3
1772042964.213940,302669,-0.20,0.16,-0.24,41.56,71.75,248.62,2.25,6.37,-1.69,0.06,-0.09,0.13,2.50,85.00,104.69,-0.50,-1.81,0.37,7,2
1772042964.404826,302860,0.14,-0.01,0.15,33.44,70.19,248.25,12.88,16.81,0.81,-0.02,-0.05,0.04,2.37,85.19,104.75,0.69,-1.12,-1.06,6,2
1772042964.595820,303051,-0.02,-0.09,0.16,30.69,68.44,247.12,2.87,1.69,2.25,0.00,-0.01,-0.03,2.19,85.56,105.00,-0.75,-2.00,-0.81,6,1
1772042964.786172,303242,0.06,0.00,0.11,30.25,68.00,246.87,0.37,-0.13,-0.13,-0.01,-0.01,0.05,2.19,85.62,104.94,0.62,0.75,0.56,6,2
1772042964.976717,303432,0.03,-0.12,0.10,31.25,68.12,246.87,-7.31,-5.25,0.81,0.00,-0.03,0.03,2.19,85.56,105.00,0.56,0.37,0.25,7,2
1772042965.166868,303622,0.00,0.06,0.10,35.81,69.00,248.12,-11.06,-4.31,-2.62,0.00,-0.01,0.01,2.19,85.62,105.06,-0.25,1.56,1.06,7,2
1772042965.357369,303813,-0.02,0.15,0.07,37.50,70.06,249.37,-4.81,-6.31,1.06,-0.02,-0.04,0.00,2.44,85.12,104.94,-0.62,3.87,1.19,6,2
1772042965.549144,304004,-0.06,-0.02,-0.12,39.13,70.87,249.31,-0.94,-6.19,-1.00,-0.03,-0.05,0.16,2.69,84.62,104.75,-0.31,2.37,1.37,7,2
1772042965.739360,304195,-0.09,0.03,-0.24,39.75,71.56,249.56,0.44,-1.37,-1.94,-0.01,-0.01,0.14,2.87,84.31,104.62,-0.13,-0.06,0.69,6,2
1772042965.929658,304385,0.01,-0.01,-0.04,37.94,71.31,249.62,2.87,5.19,0.37,-0.04,-0.01,0.06,2.87,84.50,104.62,-0.19,-2.06,0.31,6,2
1772042966.120110,304576,0.01,0.01,0.05,35.94,70.56,249.62,2.12,5.12,-0.25,0.02,0.00,0.05,2.94,84.81,104.75,-1.50,-2.75,0.19,5,1
1772042966.310532,304766,-0.16,0.18,0.00,32.31,70.00,249.44,17.31,10.75,-4.56,0.01,-0.07,0.12,3.06,84.94,104.56,-0.25,0.50,1.31,5,2
1772042966.501995,304958,0.16,-0.05,0.25,27.12,69.00,248.69,-2.19,5.69,-0.13,0.00,-0.02,0.08,3.06,85.00,104.62,-0.19,-0.19,-1.19,6,2
1772042966.692500,305148,0.42,-0.22,0.58,29.81,69.00,249.19,-17.50,-16.12,5.25,-0.03,-0.10,-0.10,2.94,85.00,104.81,-0.94,-1.00,-1.06,5,2
1772042966.882767,305338,-0.32,0.40,-0.26,41.38,71.75,250.81,-10.63,-13.38,-1.31,-0.03,0.00,0.10,2.94,84.81,104.94,-0.19,2.94,0.56,5,2
1772042967.073552,305529,-0.05,-0.10,-0.13,43.81,72.87,251.06,0.88,-1.00,0.37,0.00,-0.06,0.19,3.06,84.31,104.81,-0.06,1.56,1.12,5,2
1772042967.264268,305720,-0.13,0.06,-0.16,43.63,73.06,251.12,1.50,3.25,-1.37,0.00,-0.07,0.07,3.19,84.19,104.69,-0.44,0.25,0.06,6,2
1772042967.455265,305911,-0.19,0.16,-0.15,40.56,72.37,251.00,4.94,7.69,-0.19,-0.06,0.04,0.07,3.12,84.25,104.75,0.00,-0.88,-0.94,6,2
1772042967.645014,306101,0.08,0.00,0.12,35.69,71.00,250.25,8.56,7.31,-0.50,0.01,-0.01,0.07,3.06,84.50,104.75,0.50,-1.31,-1.19,7,2
1772042967.835468,306291,0.07,-0.06,0.20,31.62,69.69,249.12,9.31,8.13,1.06,0.00,-0.03,0.08,2.87,84.75,104.87,-0.19,-1.94,-0.88,7,2
1772042968.026810,306482,0.07,-0.07,0.15,31.12,69.12,248.62,-3.62,0.25,-0.50,-0.02,0.00,0.06,2.81,84.94,105.00,-0.69,-0.62,-0.37,7,2
1772042968.217329,306673,-0.11,0.10,0.09,35.69,69.75,249.56,-17.25,-11.25,3.00,0.05,0.00,0.02,2.75,85.06,105.19,-0.81,0.75,-0.25,7,2
1772042968.408245,306864,-0.33,-0.19,-0.26,40.06,70.69,250.75,-10.56,0.56,-3.00,0.02,0.00,0.24,2.81,85.06,105.69,-6.62,0.37,0.69,6,1
1772042968.598029,307054,0.14,0.35,0.00,40.13,70.94,253.56,-8.00,-3.06,-4.56,0.00,-0.03,0.09,3.06,84.87,106.00,0.25,0.19,1.37,5,1
1772042968.788350,307244,-0.10,0.15,-0.11,39.63,71.62,253.69,5.75,2.87,0.00,0.00,-0.07,0.07,3.31,84.69,105.75,0.06,-0.13,0.62,5,1
1772042968.979394,307435,0.05,-0.06,0.10,37.75,71.19,252.56,6.75,-1.00,3.31,0.00,-0.06,0.11,3.44,84.56,105.44,2.87,0.00,0.13,5,1
1772042969.170455,307626,0.00,0.02,-0.04,37.13,71.19,251.75,4.00,2.69,-0.25,-0.01,0.00,0.04,3.31,84.81,105.25,-0.31,-1.69,-1.00,5,1
1772042969.361158,307817,-0.01,0.08,0.05,34.88,71.00,250.87,10.13,0.56,1.50,-0.02,-0.08,0.00,3.19,84.81,105.00,2.19,-0.69,-1.12,5,1
1772042969.551001,308007,0.00,-0.20,0.18,35.75,70.50,249.56,-5.06,0.31,3.94,0.00,-0.01,0.03,2.87,85.06,105.69,-2.50,1.25,-2.37,5,1
1772042969.741300,308197,0.00,0.11,-0.04,37.25,70.44,249.94,0.06,-1.12,1.56,0.00,-0.03,0.06,2.62,85.00,105.94,1.00,0.44,-0.44,7,2
1772042969.932836,308389,0.07,0.00,0.03,38.06,70.37,249.50,-1.19,-1.19,1.25,0.04,-0.04,0.15,2.50,85.00,106.06,-1.31,-1.69,-0.75,7,2
1772042970.123225,308579,-0.13,0.11,0.00,40.88,70.44,249.94,-3.94,3.50,0.50,-0.03,0.00,0.15,2.50,85.00,106.06,3.19,1.75,1.50,8,2
1772042970.314667,308770,-0.04,-0.06,0.00,40.38,70.62,250.19,2.62,-0.13,-1.81,-0.02,-0.03,0.13,2.81,85.00,105.31,0.56,-0.69,2.25,8,3
1772042970.504472,308960,-0.15,0.21,-0.07,39.31,70.94,250.62,-1.06,0.37,-1.69,0.00,0.00,0.06,2.94,85.00,105.25,-0.75,0.56,-0.81,8,4
1772042970.694596,309150,-0.10,0.11,-0.09,38.50,70.37,250.31,5.19,4.94,2.94,0.00,-0.05,0.08,2.75,85.00,105.44,-0.06,-0.31,-1.44,8,4
1772042970.885934,309342,0.17,0.02,0.11,33.88,68.94,249.12,15.19,9.69,-0.62,0.02,-0.01,0.16,2.56,85.06,105.50,-0.37,-0.31,-0.62,8,4
1772042971.076744,309533,-0.02,-0.05,0.04,31.81,68.19,247.94,0.31,2.00,1.19,0.00,0.00,0.07,2.37,85.19,105.56,1.31,-0.75,-1.06,7,4
1772042971.267657,309723,0.00,-0.02,-0.01,31.37,67.69,247.56,2.69,2.12,0.75,0.01,-0.08,0.09,2.19,85.31,105.50,1.00,-0.75,-1.12,8,6
1772042971.457092,309913,0.00,0.09,0.00,30.87,67.19,247.37,1.31,4.75,0.88,0.04,-0.04,0.14,1.87,85.56,105.81,1.19,0.81,-2.06,7,6
1772042971.647316,310103,0.07,-0.05,0.15,30.12,66.37,246.81,2.06,1.94,2.81,0.02,-0.03,0.04,1.56,85.87,106.06,0.13,0.50,-1.31,6,5
1772042971.839268,310295,0.12,-0.12,0.16,31.06,66.25,246.25,-1.37,-4.25,1.00,0.00,-0.01,0.12,1.44,85.87,106.19,-0.19,-1.00,0.44,6,5
1772042972.030500,310486,-0.25,0.16,-0.09,36.69,67.37,247.06,-13.50,-8.56,-2.69,-0.01,0.01,0.08,1.56,86.00,106.25,-0.69,0.62,1.19,6,5
1772042972.220931,310677,0.04,0.09,-0.03,37.44,68.31,248.69,-3.19,1.69,-3.00,0.00,-0.08,0.19,1.87,85.81,105.94,0.44,0.25,2.12,6,5
1772042972.410896,310867,-0.01,0.13,0.00,36.50,68.62,249.56,-1.69,-0.44,-3.94,-0.03,-0.06,0.04,2.06,85.81,105.87,-0.31,-0.50,0.31,5,4
1772042972.601280,311057,0.05,0.04,0.04,35.81,68.75,250.19,-0.62,0.88,-0.50,0.00,-0.06,0.04,2.06,85.87,105.94,-0.62,-0.69,-0.31,5,3
1772042972.792921,311249,-0.03,0.03,-0.03,35.88,68.75,250.50,-2.12,1.00,-1.62,0.02,-0.04,0.04,2.06,85.94,106.12,-1.25,-1.19,0.13,4,3
1772042972.983671,311440,0.03,0.13,-0.02,32.31,68.31,250.56,12.63,5.62,-1.19,0.03,-0.07,0.22,2.00,86.06,106.25,0.00,0.69,-0.88,4,4
1772042973.174635,311631,0.00,0.03,-0.01,31.31,67.94,249.37,2.37,1.37,2.25,-0.02,-0.06,0.09,1.81,86.25,106.37,0.25,-2.69,-2.19,3,2
1772042973.363892,311820,0.06,-0.03,0.13,31.50,67.62,248.81,2.12,0.62,3.69,0.00,-0.10,0.05,1.50,86.44,106.62,-1.06,0.44,-1.56,3,2
1772042973.554231,312010,0.14,-0.31,0.22,32.88,67.31,248.50,-7.62,-2.37,0.25,-0.04,-0.06,-0.01,1.31,86.37,107.00,-2.12,0.88,-0.75,2,3
1772042973.746308,312202,-0.11,0.46,-0.07,38.00,67.81,250.94,-15.00,-0.37,-2.44,-0.01,0.08,0.12,1.12,86.12,107.69,-3.87,1.25,-0.19,2,4
1772042973.937516,312393,-0.12,-0.18,-0.12,37.69,68.12,251.50,-0.37,-1.69,0.44,0.03,-0.16,0.13,1.25,85.87,107.62,-1.62,-1.00,-0.75,2,4
1772042974.128106,312584,-0.07,0.23,-0.14,37.13,67.94,252.06,4.87,1.31,-2.31,0.00,-0.02,0.06,1.37,85.94,107.37,2.50,-1.50,2.56,3,4
1772042974.317275,312773,0.13,0.19,0.07,32.69,67.37,251.37,15.81,9.06,-2.69,0.00,-0.02,0.10,1.69,86.06,106.87,-0.69,-1.62,1.12,3,4
1772042974.507292,312963,0.25,0.23,0.14,29.25,67.31,250.25,6.56,0.37,-1.56,-0.03,-0.09,0.08,1.75,86.25,106.75,0.37,-2.56,-0.37,3,4
1772042974.699180,313155,0.07,-0.13,0.00,29.00,67.75,249.50,-1.56,2.19,2.94,0.04,-0.05,0.04,1.62,86.62,106.75,1.12,4.00,-0.13,4,4
1772042974.890899,313347,-0.08,-0.25,0.01,31.94,67.62,250.25,-20.19,-6.31,2.75,0.04,0.12,0.06,1.19,87.25,108.25,-4.94,-1.75,-2.69,3,4
1772042975.081328,313537,0.06,0.23,0.09,34.31,68.25,251.94,5.87,0.94,-2.69,0.00,-0.15,0.00,1.44,87.00,107.81,0.88,-0.94,2.37,4,4
1772042975.271232,313727,-0.02,0.02,-0.05,33.00,68.62,251.87,-3.12,-1.00,-4.37,0.00,-0.07,0.10,1.62,87.06,107.81,-0.06,-2.06,-0.25,4,4
1772042975.460355,313916,-0.13,0.19,-0.10,31.44,68.75,252.37,5.56,5.06,1.56,-0.01,-0.11,0.02,1.62,87.19,107.56,0.50,0.94,0.06,4,3
1772042975.652222,314109,0.06,-0.09,0.02,28.75,67.81,251.06,10.88,4.44,-0.50,0.00,0.00,0.10,1.62,87.12,107.56,1.00,0.69,0.37,5,2
1772042975.843972,314300,-0.03,-0.13,0.10,27.31,67.37,250.19,1.12,0.06,1.19,-0.01,-0.03,0.08,1.69,86.94,107.31,0.62,1.37,0.06,5,2
1772042976.034873,314491,-0.02,-0.01,0.00,27.69,67.50,250.06,1.06,-0.81,-0.06,0.00,-0.05,0.10,1.81,86.75,107.06,0.88,1.44,1.19,5,2
1772042976.224227,314680,0.00,0.01,-0.06,27.56,67.62,249.94,1.31,-0.13,0.13,-0.01,-0.03,0.11,1.94,86.50,106.81,0.69,0.94,0.56,5,2
1772042976.413827,314870,-0.03,-0.07,-0.01,27.44,67.44,249.50,1.37,-0.50,1.44,-0.02,-0.04,0.01,1.87,86.50,106.87,0.13,-0.75,-0.31,5,2
1772042976.606703,315063,0.11,0.00,0.08,27.50,67.31,249.37,1.62,0.31,1.31,-0.01,-0.09,0.10,1.87,86.50,106.94,0.31,1.25,-0.06,4,2
1772042976.797735,315254,0.01,-0.16,0.09,29.75,67.81,249.25,-9.88,-5.75,3.19,-0.01,0.00,0.12,1.87,86.44,107.06,-0.50,1.62,1.19,5,2
1772042976.988601,315445,-0.07,0.25,-0.22,29.37,68.37,249.94,18.31,3.69,-6.50,0.00,0.03,0.21,2.00,86.37,107.19,-1.00,0.06,0.88,4,2
1772042977.178036,315634,0.03,-0.04,0.07,27.37,68.12,249.62,-5.94,0.94,0.56,-0.02,-0.06,0.06,2.12,86.31,107.00,-0.88,-0.88,0.75,5,2
1772042977.367283,315823,0.11,-0.07,0.21,31.50,68.69,251.19,-28.00,-9.94,2.31,0.05,-0.10,-0.04,2.12,86.37,107.12,-0.31,0.94,0.37,5,1
1772042977.558969,316015,0.03,0.11,-0.14,33.88,69.75,253.12,1.44,-0.75,-1.12,-0.02,-0.04,0.03,2.25,86.12,107.12,0.69,0.06,1.81,5,1
1772042977.751490,316208,0.08,0.00,0.00,32.50,69.75,253.06,0.94,1.00,-1.19,0.00,-0.04,0.05,2.44,85.94,106.94,-0.56,-0.06,-0.50,5,3
1772042977.942589,316398,-0.04,0.07,-0.04,32.19,69.62,253.12,2.25,1.75,0.56,-0.01,-0.08,0.03,2.44,86.00,106.94,-0.37,-1.56,-0.56,6,3
1772042978.132922,316589,0.09,0.00,0.08,31.19,69.25,252.94,-0.06,2.31,1.00,0.00,-0.03,0.07,2.44,86.06,106.94,-0.31,-0.31,-0.31,6,3
1772042978.325572,316781,-0.04,-0.03,0.02,31.31,69.12,252.87,-0.88,0.69,0.31,0.02,-0.01,0.06,2.44,86.06,107.06,-1.25,-0.37,0.69,6,3
1772042978.518321,316974,0.05,0.08,0.06,30.75,69.12,253.19,-1.69,0.19,-1.94,0.00,-0.02,0.08,2.62,85.94,107.06,-0.69,-0.25,1.12,6,3
1772042978.707507,317164,0.05,0.01,-0.11,30.37,69.25,253.50,-2.12,-0.56,-0.06,0.03,-0.02,0.14,2.56,86.19,107.31,2.00,0.44,-1.25,6,3
1772042978.896795,317353,0.03,0.29,0.12,29.00,68.81,253.50,6.19,10.06,2.12,0.00,0.06,0.07,2.44,86.25,107.50,-1.75,0.06,-0.50,6,3
1772042979.088469,317545,-0.11,-0.16,0.01,25.69,67.94,251.56,16.31,1.50,-1.75,0.00,0.04,0.02,2.25,86.75,108.00,-0.19,-3.94,-1.19,6,3
1772042979.280618,317737,0.04,-0.01,0.18,24.00,67.56,250.56,0.88,0.56,1.50,0.00,-0.07,0.01,2.25,86.94,107.69,-0.56,0.94,0.44,6,3
1772042979.472156,317928,-0.03,0.19,-0.11,23.56,67.25,250.44,5.31,3.37,1.00,-0.02,-0.02,0.09,2.25,86.75,107.75,-0.31,0.69,-0.56,5,4
1772042979.661230,318117,0.05,-0.19,0.18,23.62,66.44,249.19,-0.75,-0.31,1.87,0.00,0.02,0.07,2.06,86.87,108.06,0.06,1.31,-1.25,4,3
1772042979.850678,318307,0.09,-0.04,0.07,25.75,66.62,248.81,-1.50,-5.87,3.81,0.05,-0.08,0.02,1.94,86.62,108.00,0.62,1.37,-1.56,3,2
1772042980.042972,318499,-0.01,-0.03,0.07,30.00,66.94,249.19,-20.37,-4.12,2.00,-0.05,-0.01,0.26,1.69,86.50,108.62,-2.87,2.37,-1.81,3,2
1772042980.234497,318690,-0.10,0.11,-0.08,32.00,67.56,250.75,-4.87,1.25,-0.56,0.04,-0.01,0.14,1.31,86.87,109.62,1.44,0.06,-0.69,3,2
1772042980.425776,318882,-0.01,-0.17,-0.05,31.56,67.25,250.81,3.69,1.12,-1.00,-0.02,-0.01,0.10,1.50,86.81,109.12,1.50,-3.69,1.12,4,2
1772042980.614527,319071,0.14,0.00,0.04,30.06,67.19,251.00,5.06,0.25,-0.44,0.04,-0.03,0.05,1.87,86.69,108.25,1.31,0.25,2.19,4,2
1772042980.804298,319260,0.06,0.05,0.11,28.94,67.12,251.06,-0.94,1.75,-2.75,0.01,-0.05,0.01,2.06,86.69,108.12,-1.75,-0.88,-0.13,4,2
1772042980.996586,319453,0.00,0.14,0.03,28.37,67.12,251.50,1.12,0.56,0.44,0.04,-0.02,0.02,2.19,86.62,108.12,2.00,2.25,1.50,4,2
1772042981.187948,319644,0.11,-0.04,0.12,26.75,66.81,250.69,11.31,0.56,0.50,0.02,-0.03,0.04,2.31,86.31,107.56,1.81,-0.81,0.06,5,2
1772042981.378991,319835,0.07,0.00,0.07,26.56,66.62,249.87,-0.62,1.31,1.50,-0.04,-0.03,0.03,2.12,86.50,107.69,-1.75,-0.25,-2.31,5,2
1772042981.568000,320024,0.10,0.13,0.06,27.25,66.69,249.62,3.31,0.31,4.06,0.00,-0.14,0.14,1.87,86.62,107.87,-2.62,-2.00,-0.56,5,2
1772042981.757721,320214,-0.12,-0.06,0.18,32.75,67.62,250.25,-38.94,-13.25,2.12,0.00,0.15,-0.18,1.44,87.37,108.87,2.12,2.62,-1.00,6,2
1772042981.950588,320406,-0.03,0.25,-0.11,36.63,68.44,253.31,0.81,0.13,-3.31,-0.01,-0.05,-0.01,1.56,87.06,108.81,-0.19,-1.37,1.69,6,2
1772042982.141125,320597,0.31,-0.01,0.06,33.81,68.37,253.44,0.19,4.31,-1.69,0.00,-0.02,0.16,1.81,86.75,108.81,0.25,-1.19,0.25,5,2
1772042982.332097,320788,-0.13,0.09,-0.04,32.69,68.25,253.44,4.87,7.44,-0.19,0.01,-0.10,0.07,1.81,86.94,108.62,0.69,-0.19,0.25,5,2
1772042982.522632,320979,0.24,-0.04,0.20,28.44,67.19,252.62,13.56,0.69,-0.62,0.04,-0.01,0.08,1.81,86.94,108.44,0.13,-0.88,-1.00,6,2
1772042982.711841,321168,-0.07,-0.05,0.06,27.12,67.00,251.31,4.94,2.56,2.81,-0.04,0.06,-0.02,1.69,87.12,108.25,3.69,0.44,0.75,6,2
1772042982.903462,321360,0.00,-0.08,0.08,25.69,66.25,249.81,14.25,1.56,3.06,-0.02,-0.05,0.09,1.87,86.75,107.56,1.87,0.94,1.19,6,2
1772042983.094513,321551,0.00,-0.17,0.09,25.25,65.87,248.25,-2.37,-0.50,0.75,0.02,0.04,0.03,1.87,86.69,107.50,-0.56,0.25,0.19,6,2
1772042983.285269,321741,-0.04,-0.04,0.10,26.31,66.12,248.56,-3.19,-2.81,-0.19,0.00,0.00,0.08,1.94,86.56,107.31,-0.06,0.94,0.56,6,2
1772042983.474923,321931,-0.07,0.05,-0.04,30.06,66.81,249.69,-18.69,-7.69,-0.81,0.00,0.19,0.00,1.87,86.81,107.94,-2.50,0.06,-0.25,6,2
1772042983.664977,322121,0.05,0.05,-0.12,31.00,67.81,251.19,0.19,-3.44,-2.00,-0.02,-0.07,0.13,1.94,86.87,107.94,-1.62,-2.50,-0.25,5,2
1772042983.856520,322313,-0.01,0.26,-0.09,30.75,68.31,251.87,1.31,2.81,-0.56,-0.01,-0.10,-0.01,2.06,86.94,107.75,0.19,0.94,0.37,5,2
1772042984.047554,322504,0.08,-0.03,0.05,29.25,67.44,251.62,-0.19,5.75,2.19,0.06,-0.05,0.05,1.94,86.87,108.00,-1.56,-0.56,-1.25,5,2
1772042984.238421,322695,0.02,0.04,0.01,28.56,66.62,251.50,1.56,3.50,0.31,-0.02,-0.01,0.12,1.75,87.19,108.25,-0.50,-2.00,-0.94,4,2
1772042984.429095,322885,-0.07,0.00,0.11,28.19,66.19,251.37,0.00,3.31,-1.44,-0.06,0.04,-0.03,1.62,87.44,108.44,-0.37,-0.19,-0.50,4,1
1772042984.618120,323075,0.00,0.00,0.17,26.75,65.56,251.25,5.87,3.31,-0.37,0.02,-0.02,0.03,1.75,87.37,108.31,1.00,1.81,0.88,4,1
1772042984.809869,323266,-0.02,-0.02,0.01,24.81,65.37,250.50,9.94,0.56,-0.69,-0.05,-0.04,0.14,1.81,87.12,108.06,0.56,-1.00,0.50,4,2
1772042985.000768,323457,0.09,0.00,0.07,24.12,65.50,249.87,-1.75,-0.88,0.06,-0.01,0.01,0.04,1.81,87.25,108.12,-0.19,0.13,-0.75,5,2
1772042985.191876,323648,-0.04,0.03,0.14,28.00,65.81,250.56,-27.44,-5.31,4.62,0.00,0.04,-0.14,1.81,87.25,108.19,-2.06,-0.31,-0.25,5,2
1772042985.381544,323838,0.03,-0.08,0.15,29.44,66.56,251.87,4.44,-5.19,-3.31,-0.03,0.02,0.01,2.25,86.56,107.87,0.44,3.37,3.44,6,1
1772042985.571744,324028,0.03,0.06,-0.08,29.81,68.00,252.31,-3.12,-10.94,-1.75,-0.03,0.02,0.13,2.69,85.81,107.44,-0.94,2.44,1.87,7,2
1772042985.762769,324219,-0.07,0.17,-0.28,30.87,69.37,252.69,1.94,0.88,-2.00,0.00,0.00,0.15,3.00,85.37,107.12,0.06,0.50,1.44,7,2
1772042985.953867,324410,-0.01,0.07,-0.06,29.56,69.19,252.56,2.00,2.62,-0.81,0.03,0.00,0.09,3.12,85.31,107.06,-0.31,-1.50,-0.69,6,1
1772042986.144767,324601,0.03,-0.02,0.12,28.50,68.56,252.25,2.25,2.06,0.75,0.02,0.01,0.02,3.00,85.44,107.12,0.62,-1.31,-1.06,6,2
1772042986.335359,324792,0.03,0.36,-0.16,27.37,67.94,251.94,12.56,8.13,0.06,-0.07,0.08,0.05,2.75,85.75,107.31,1.62,0.50,0.06,6,2
1772042986.525654,324982,-0.06,-0.18,0.15,25.50,67.00,250.25,-5.06,1.37,0.44,-0.01,0.08,0.00,2.62,86.06,107.44,-0.31,-0.69,-1.44,5,2
1772042986.716356,325173,0.02,-0.19,0.31,28.44,66.81,251.25,-19.50,-6.56,1.94,0.00,0.00,-0.03,2.62,86.00,107.50,0.37,1.06,0.81,5,2
1772042986.907100,325363,-0.04,0.16,-0.08,32.00,68.00,253.06,-2.12,-4.81,-3.94,0.00,0.02,0.06,2.94,85.56,107.31,-0.56,1.81,2.12,4,2
1772042987.098002,325554,0.10,0.02,-0.02,31.69,69.00,253.69,-0.81,-3.62,-2.37,0.04,-0.03,0.09,3.25,85.06,107.12,-1.00,1.19,1.19,5,2
1772042987.288957,325745,-0.04,0.14,-0.12,32.25,69.87,254.25,-1.81,-1.44,-3.00,-0.01,0.04,0.09,3.56,84.81,107.00,-0.81,0.44,1.00,4,2
1772042987.479273,325936,0.02,0.04,-0.09,31.25,70.12,254.69,0.75,0.62,-1.87,0.00,0.02,0.15,3.69,84.69,106.87,-0.25,-0.81,-0.06,4,2
1772042987.669976,326126,-0.07,0.16,-0.09,29.69,70.00,254.81,6.69,5.81,-0.44,-0.01,0.00,0.05,3.69,84.75,106.81,0.13,-1.12,-0.44,4,2
1772042987.859964,326316,0.01,0.02,0.03,27.31,69.12,253.81,5.81,3.81,1.75,0.02,0.04,0.07,3.56,85.00,106.87,1.06,0.37,-0.75,4,2
1772042988.051182,326507,0.07,-0.24,0.16,26.44,68.31,252.56,6.12,0.81,2.94,-0.04,0.05,0.00,3.37,85.25,106.94,0.62,-1.69,-1.19,4,2
1772042988.241721,326698,0.12,0.03,0.09,26.69,68.12,252.00,1.81,-0.81,1.69,-0.02,0.06,0.09,3.19,85.31,106.94,0.88,0.50,0.13,4,1
1772042988.432543,326889,-0.06,-0.09,0.02,27.81,68.31,251.50,-2.12,-1.19,-0.44,0.00,0.04,0.04,3.25,85.19,106.94,-0.56,0.62,1.00,4,1
1772042988.622999,327079,0.10,0.06,0.08,27.37,68.50,252.12,-1.56,-0.06,-0.50,0.01,0.02,0.17,3.31,85.12,106.94,-0.56,0.00,-0.06,4,2
1772042988.813630,327270,-0.06,-0.04,-0.05,28.19,68.75,252.44,-3.94,-0.25,-1.75,0.00,0.06,0.05,3.31,85.19,107.12,-1.00,-0.62,0.13,4,1
1772042989.004263,327461,0.10,0.07,0.07,27.06,68.56,253.06,3.12,2.19,0.88,0.00,-0.03,0.06,3.37,85.19,107.06,-0.69,-0.94,-0.31,4,1
1772042989.195101,327651,0.05,0.01,0.02,26.69,68.31,253.00,-2.19,1.31,-1.37,0.00,-0.03,0.09,3.31,85.25,107.31,-1.25,-1.31,-0.62,4,2
1772042989.385708,327842,0.10,0.02,0.13,26.12,68.25,253.62,-0.13,2.06,-0.62,-0.01,0.04,0.11,3.31,85.31,107.50,-0.50,-1.19,-0.81,5,2
1772042989.576438,328033,-0.02,0.05,0.01,26.44,68.12,253.81,-1.06,0.56,-0.37,0.00,0.04,0.04,3.31,85.44,107.56,0.50,-0.62,-0.31,5,2
1772042989.766428,328223,0.09,-0.06,0.05,26.31,68.12,253.62,-0.13,-2.44,0.88,-0.01,0.07,0.13,3.31,85.44,107.62,0.50,0.62,-0.06,5,2
1772042989.957563,328414,0.01,-0.06,0.08,26.69,68.12,253.31,1.00,-0.62,0.69,-0.03,0.03,0.05,3.31,85.50,107.56,-1.44,-1.06,0.62,5,2
1772042990.148224,328605,0.08,0.14,0.06,26.62,68.31,253.69,-0.31,-1.00,-0.88,-0.01,0.01,0.13,3.50,85.37,107.37,0.75,-0.19,1.06,5,2
1772042990.338871,328795,-0.04,0.02,-0.02,26.62,68.56,253.62,0.06,2.19,-2.56,0.03,0.02,0.24,3.50,85.37,107.44,-0.94,-0.56,-1.87,5,2
1772042990.528922,328985,-0.07,-0.05,-0.08,25.81,68.56,253.62,6.31,-3.62,1.44,0.06,-0.02,0.08,3.62,85.37,107.19,2.69,1.81,0.69,5,2
1772042990.719140,329176,0.02,-0.22,0.18,22.44,68.81,251.75,6.00,-1.19,1.62,0.00,-0.06,0.00,3.31,85.25,107.56,1.25,1.50,-2.31,5,2
1772042990.910792,329367,-0.17,-0.14,0.06,26.31,68.81,251.62,-15.75,-6.37,5.62,-0.01,0.07,0.15,2.94,84.87,108.31,-0.62,5.12,-1.94,5,3
1772042991.101341,329558,0.03,0.08,-0.03,31.44,69.81,253.50,-10.00,0.44,-2.94,-0.05,0.02,0.29,2.69,84.31,109.06,4.50,2.50,-0.13,5,2
1772042991.292090,329748,0.36,-0.17,0.04,31.62,70.00,254.25,1.50,2.50,-0.56,-0.02,-0.02,0.24,2.69,83.87,108.87,2.19,1.87,0.13,5,2
1772042991.482485,329939,-0.26,-0.05,-0.14,32.44,70.37,254.06,0.69,-1.37,0.37,-0.02,0.00,-0.02,2.69,83.87,109.12,-7.25,3.81,-1.56,5,2
1772042991.672330,330129,0.10,0.02,0.22,31.56,69.87,254.56,-1.50,-0.88,0.31,-0.03,-0.06,0.27,2.69,83.12,109.62,7.50,1.75,0.56,5,2
1772042991.864131,330320,0.18,-0.14,0.04,32.38,70.00,254.56,-3.25,-0.13,0.69,-0.08,-0.01,-0.03,2.69,83.12,109.50,0.31,-2.94,-0.88,6,2
1772042992.054672,330511,0.03,-0.19,0.09,33.88,70.06,255.06,-9.19,0.56,2.44,0.02,-0.01,0.09,2.69,83.31,109.50,0.00,-2.62,-0.13,7,2
1772042992.245475,330702,-0.02,0.09,-0.04,33.75,69.75,255.81,6.37,3.06,-1.00,-0.05,0.00,0.09,2.87,83.44,109.25,0.19,-0.56,1.69,7,2
1772042992.435249,330892,-0.03,0.71,-0.05,29.87,69.37,255.06,15.88,6.81,-1.94,0.00,0.04,0.09,3.00,83.50,109.00,1.37,-0.19,1.19,8,3
1772042992.625530,331082,-0.17,-0.08,0.07,23.31,68.69,251.50,14.69,2.25,3.44,0.02,-0.02,0.07,3.12,83.56,108.75,-0.25,-1.37,-0.69,8,3
1772042992.817018,331273,0.02,-0.22,0.15,20.12,68.12,249.37,10.38,2.31,4.00,0.02,-0.04,-0.06,3.12,83.81,108.44,-1.69,-2.81,-1.12,7,3
1772042993.007936,331464,0.10,-0.06,0.12,21.69,67.50,249.19,-15.50,-1.69,2.69,-0.04,-0.11,0.13,3.06,83.94,108.37,1.69,0.75,1.19,7,3
1772042993.199129,331655,-0.03,0.34,0.19,28.94,67.56,251.62,-49.88,-10.94,0.25,0.05,0.17,-0.12,2.94,84.19,108.81,-2.62,-1.94,-0.69,8,4
1772042993.389555,331846,0.14,0.11,-0.01,31.19,68.50,254.81,-0.50,-0.69,0.37,0.02,-0.07,0.11,3.44,83.69,108.44,0.25,0.50,2.37,7,4
1772042993.579149,332035,0.07,0.05,-0.10,30.00,68.75,255.31,-1.62,1.94,-3.19,0.00,-0.05,0.02,3.62,83.75,108.62,-2.69,-1.62,0.06,8,4
1772042993.770834,332227,-0.03,0.74,-0.19,27.62,68.62,255.75,16.06,8.00,-1.37,-0.06,0.00,0.00,3.62,83.94,108.50,-0.37,-3.94,-0.25,7,4
1772042993.961543,332418,0.19,-0.44,0.31,20.62,67.37,251.12,21.94,1.94,8.31,0.03,-0.03,0.02,3.44,84.25,108.50,2.06,-2.44,-3.69,6,4
1772042994.152492,332609,-0.06,-0.19,0.21,22.69,66.44,248.87,-3.19,1.00,4.75,-0.06,0.12,-0.04,2.81,84.81,108.75,1.69,-0.19,-1.25,6,4
1772042994.341924,332798,-0.17,0.15,0.05,26.56,66.12,249.56,-13.69,-3.19,0.00,-0.01,0.08,0.00,2.62,84.87,109.06,-3.37,-0.25,-1.50,5,3
1772042994.531447,332988,0.28,0.02,0.15,27.19,66.25,250.37,-0.81,-1.56,-0.88,0.00,-0.03,0.10,2.75,84.50,109.12,-0.75,0.37,1.31,5,3
1772042994.723693,333180,-0.11,0.17,-0.16,27.81,67.31,251.00,-2.50,-2.87,-0.62,0.02,-0.02,0.11,3.00,84.31,109.06,-3.62,2.06,0.69,5,4
1772042994.914790,333371,0.07,0.27,-0.21,26.87,67.31,251.37,3.19,4.56,0.56,0.00,-0.10,0.01,3.00,84.25,108.87,2.25,-2.62,-1.44,5,4
1772042995.105675,333562,0.07,-0.41,0.22,23.37,66.37,249.19,15.25,3.62,2.19,0.05,0.02,-0.04,2.87,84.62,108.94,1.50,-0.75,-0.88,3,3
1772042995.295773,333752,-0.10,0.12,0.19,25.00,65.69,248.94,-14.75,-2.06,2.37,0.00,0.03,-0.02,2.62,84.94,109.19,-0.75,0.75,-0.69,4,4
1772042995.484656,333941,0.03,0.10,0.00,27.75,66.37,250.62,-8.19,-1.31,-4.87,0.01,0.03,0.02,2.69,84.81,109.25,-1.50,0.44,1.00,4,4
1772042995.677116,334133,-0.13,0.10,-0.15,28.81,67.12,251.94,-7.81,-3.81,0.19,-0.01,0.00,-0.02,3.00,84.56,109.06,0.06,-0.37,1.44,5,4
1772042995.869654,334326,0.06,0.15,-0.10,29.06,67.50,252.81,-1.25,0.94,0.31,0.04,-0.03,0.10,3.06,84.50,109.06,-1.31,-0.44,-0.31,6,3
1772042996.060100,334516,-0.07,0.11,-0.11,28.06,67.37,252.94,3.00,1.81,-0.06,0.00,-0.03,-0.04,3.06,84.75,108.94,1.00,-1.87,-0.25,6,3
1772042996.249218,334706,0.07,-0.01,0.11,25.00,66.56,252.19,13.19,4.12,0.37,-0.02,0.02,0.04,2.94,85.00,109.00,0.31,-2.06,-1.50,6,3
1772042996.438497,334895,0.13,-0.16,0.12,24.50,65.81,251.31,-0.06,1.81,0.88,-0.03,0.05,-0.06,2.62,85.37,108.94,2.06,-0.75,-1.19,6,4
1772042996.631751,335088,0.07,-0.04,0.19,24.87,65.69,251.37,-2.37,-1.06,1.06,-0.01,0.07,-0.15,2.69,85.31,108.87,0.00,1.31,1.62,5,3
1772042996.825363,335282,-0.04,-0.10,0.04,25.75,66.06,251.69,-4.37,-6.31,-4.00,0.00,0.00,0.00,3.00,84.87,108.81,-2.56,1.81,0.94,6,3
1772042997.014502,335471,0.00,0.28,-0.20,26.06,67.31,253.37,-5.12,-3.56,-3.06,-0.04,0.01,0.15,3.25,84.56,108.81,0.31,1.19,1.44,7,3
1772042997.203894,335660,-0.03,0.02,-0.07,25.69,67.75,253.69,1.19,4.87,0.62,-0.01,-0.03,0.15,3.25,84.44,108.81,0.94,0.37,-1.31,7,2
1772042997.394536,335851,0.05,0.43,0.06,24.87,66.81,253.19,8.25,4.75,0.44,0.00,0.05,0.03,3.00,84.69,109.19,1.19,-0.88,-0.69,8,2
1772042997.588559,336045,-0.09,-0.40,0.16,21.12,66.50,250.69,1.25,2.00,3.62,0.05,-0.04,0.10,3.12,84.75,108.94,-0.44,-0.44,-0.88,7,2
1772042997.780057,336236,0.30,-0.51,0.32,24.31,66.56,251.50,-18.94,-5.87,3.56,0.03,-0.08,-0.03,2.81,85.25,109.06,0.50,-3.19,-1.25,7,2
1772042997.969385,336426,-0.04,0.61,-0.09,30.00,68.06,254.56,-4.37,-1.62,-4.31,-0.01,0.06,0.05,2.69,85.19,109.12,-2.12,0.81,0.19,6,2
1772042998.159906,336617,0.07,-0.03,-0.08,29.06,68.12,254.12,3.44,2.44,0.06,0.00,-0.02,0.07,2.75,85.12,109.19,0.75,-0.13,0.69,6,2
1772042998.352541,336808,-0.12,-0.04,-0.06,28.44,67.94,254.00,-0.25,-0.56,-0.88,-0.02,-0.11,0.16,2.94,84.94,108.94,-1.69,-1.44,-0.06,7,2
1772042998.542378,336999,-0.03,0.15,-0.02,27.50,67.94,254.50,1.81,1.00,0.75,0.00,0.00,-0.09,3.00,85.12,108.75,1.56,0.94,0.19,8,2
1772042998.733756,337190,-0.03,-0.10,0.01,27.25,67.44,254.19,-2.81,-0.37,0.06,-0.01,0.11,-0.18,2.81,85.31,109.37,0.69,0.25,0.44,7,2
1772042998.923094,337379,0.05,-0.21,0.10,26.50,67.31,254.31,2.31,-1.75,0.75,-0.04,-0.04,0.08,3.12,85.06,109.12,-4.37,-1.94,-0.31,6,2
1772042999.114100,337570,0.10,0.11,-0.05,27.62,67.87,254.75,-3.00,-6.50,2.44,-0.05,-0.03,-0.07,2.94,85.19,109.37,-0.62,0.13,-0.13,6,2
1772042999.305270,337762,0.01,0.15,0.16,29.87,68.44,254.56,-3.37,-5.00,0.00,-0.01,0.03,-0.03,2.75,85.31,110.12,-3.31,-1.81,-1.50,5,3
1772042999.495798,337952,-0.17,0.02,0.00,31.00,69.62,254.75,5.87,-12.13,3.06,0.02,0.02,-0.02,2.87,85.00,109.62,0.00,2.25,1.69,5,3
1772042999.686560,338143,0.06,-0.02,-0.18,32.06,70.31,253.87,2.19,0.31,1.00,-0.04,0.00,0.22,3.00,84.75,109.37,-0.56,-0.75,-0.44,4,3
1772042999.875925,338332,0.07,0.12,-0.13,31.25,70.25,253.31,8.06,2.44,-0.69,-0.04,0.01,0.18,2.94,84.69,109.31,3.06,-0.31,0.06,4,3
1772043000.065494,338522,-0.06,-0.16,0.18,30.00,70.25,251.94,7.75,0.94,2.37,0.04,-0.05,-0.05,2.87,84.94,109.12,-2.87,-2.00,-2.94,4,4
1772043000.257404,338714,0.07,0.16,0.23,29.81,69.44,251.94,-2.75,4.19,2.75,-0.04,-0.02,0.08,2.50,85.12,109.62,-0.44,1.44,-1.19,3,4
1772043000.448921,338905,0.20,-0.11,0.16,30.75,69.19,251.75,-2.81,-1.06,0.25,-0.02,0.00,0.03,2.37,85.00,109.87,-0.06,0.56,-0.37,4,4
1772043000.639779,339096,-0.07,-0.16,0.06,33.69,69.75,252.19,-12.88,-5.50,1.31,-0.05,-0.04,0.00,2.44,84.87,109.94,0.13,0.25,0.44,4,4
1772043000.829243,339286,-0.06,0.14,-0.09,36.25,70.12,254.00,-8.81,0.56,-1.37,0.00,0.00,0.07,2.44,84.87,110.37,-1.69,-0.25,0.50,4,4
1772043001.018377,339475,0.23,0.12,0.11,35.44,70.37,254.62,3.37,-5.19,-0.06,0.04,-0.02,0.06,2.75,84.69,109.94,2.06,-1.12,2.00,4,4
1772043001.210286,339667,0.09,-0.14,0.13,35.19,70.94,254.12,0.19,2.75,-2.50,-0.03,-0.06,0.01,3.06,84.56,109.50,0.00,0.69,1.19,5,3
1772043001.401717,339858,-0.10,0.15,-0.07,35.00,71.31,255.19,-0.19,2.50,-0.75,0.00,0.00,0.10,3.56,84.25,108.87,1.12,1.50,2.44,5,3
1772043001.592838,340049,0.11,0.05,0.02,34.75,71.62,255.25,-1.19,-3.69,0.81,-0.09,0.03,-0.02,3.50,84.06,108.81,-0.31,0.44,-1.81,6,3
1772043001.782749,340239,-0.11,0.23,-0.32,39.06,71.87,255.37,-7.69,-6.00,6.75,-0.14,0.07,-0.23,3.25,84.56,108.50,-1.87,-6.06,-1.37,6,2
1772043001.971584,340429,-0.03,0.06,0.04,39.00,70.69,254.37,9.13,7.19,-2.12,0.02,0.18,0.12,3.37,84.44,107.62,10.88,3.19,4.50,7,2
1772043002.163753,340620,0.18,-0.49,0.35,35.63,70.50,253.37,0.25,-5.44,3.62,0.00,-0.02,-0.06,3.50,84.19,106.56,-4.12,-0.88,-2.94,7,2
1772043002.354847,340812,-0.20,0.21,-0.10,42.88,70.75,254.75,-22.94,-1.75,0.50,0.12,0.12,0.02,3.25,84.25,107.44,6.44,8.38,3.00,6,2
1772043002.545878,341002,0.25,0.36,0.11,41.56,71.00,256.69,13.13,-5.75,-0.62,-0.05,-0.03,0.06,3.56,83.56,106.00,-0.37,0.88,1.56,6,2
1772043002.736234,341192,-0.10,-0.20,-0.03,44.94,72.06,254.37,-1.69,-7.62,5.25,0.03,-0.02,-0.05,3.50,83.81,106.69,-7.87,-1.25,-3.31,6,1
1772043002.926607,341383,-0.04,0.15,-0.04,49.50,72.00,254.75,-8.31,-0.62,-0.44,0.01,0.04,0.06,3.06,84.06,108.12,0.44,1.00,0.50,6,2
1772043003.117214,341574,0.03,0.01,0.11,48.44,72.19,255.37,2.75,3.19,-3.19,-0.01,0.00,0.09,3.31,83.81,108.31,-5.69,0.81,0.62,7,3
1772043003.308535,341765,-0.07,0.19,-0.04,47.38,73.12,255.25,5.12,-4.87,-2.31,0.06,-0.07,0.06,3.50,83.62,108.69,-1.62,-0.50,1.75,7,3
1772043003.498604,341956,0.03,0.03,0.04,46.69,73.44,254.50,3.69,-1.44,0.94,0.00,-0.03,0.05,3.75,83.50,108.50,1.69,0.25,0.37,7,3
1772043003.689380,342146,0.02,0.03,0.02,47.94,73.50,254.00,-1.50,-0.62,2.94,0.00,0.01,0.08,3.62,83.56,108.56,0.37,0.69,-0.13,8,3
1772043003.878891,342336,0.01,0.10,0.02,49.25,73.31,254.31,-4.06,0.31,-1.12,0.02,0.02,0.02,3.56,83.44,108.56,-1.94,1.44,-0.81,9,4
1772043004.070314,342527,0.08,0.24,-0.03,49.50,73.44,254.69,1.12,-3.19,-0.06,-0.02,-0.10,0.00,3.56,83.19,108.50,0.50,-1.06,0.25,10,4
1772043004.261343,342718,-0.05,-0.02,-0.02,49.94,73.75,254.06,1.12,0.81,-0.37,0.03,0.01,0.10,3.56,83.19,108.56,0.37,1.62,0.25,10,4
1772043004.452240,342909,-0.11,-0.05,0.02,48.94,73.37,254.31,-3.00,3.62,-0.31,-0.03,0.05,0.05,31.69,83.12,108.81,-0.75,0.00,0.81,10,4
1772043004.642784,343099,-0.14,-0.03,-0.03,47.56,73.44,255.00,0.06,0.94,-1.31,0.03,-0.03,0.08,33.63,83.00,108.56,-2.00,0.31,0.75,11,5
1772043004.832560,343289,0.06,0.14,-0.01,45.75,73.31,255.69,-0.50,1.00,-1.25,0.04,-0.09,0.12,33.81,82.94,108.69,-1.25,-1.50,0.31,11,5
1772043005.023171,343480,-0.04,0.08,0.00,45.13,73.37,255.69,3.12,0.06,0.69,0.02,-0.06,0.05,34.44,83.00,108.56,0.94,1.19,0.81,9,4
1772043005.214535,343671,0.02,0.07,0.14,45.13,73.37,255.37,-1.50,-0.81,1.87,0.00,-0.02,0.03,34.50,83.06,108.69,-1.75,-0.37,-0.50,8,3
1772043005.405335,343862,-0.09,0.03,-0.06,47.19,73.56,255.00,1.56,-4.75,1.37,0.00,0.02,0.16,34.25,83.00,108.69,-0.19,1.81,-0.31,8,5
1772043005.595888,344052,-0.21,-0.01,-0.10,51.00,73.50,255.06,-11.44,-5.12,3.81,0.05,-0.03,0.13,34.31,83.00,108.81,-3.06,-2.19,0.00,7,5
1772043005.786041,344243,-0.13,0.26,0.04,53.50,73.31,256.56,-5.31,5.19,-1.62,-0.02,0.08,0.08,34.75,83.06,109.00,0.56,0.31,0.44,6,4
1772043005.976833,344433,-0.03,-0.02,-0.04,53.06,73.06,256.87,2.31,-1.87,0.81,0.00,-0.05,0.10,34.75,83.06,108.94,-0.50,-0.06,0.50,5,4
1772043006.167363,344624,0.05,0.08,0.05,52.69,73.19,257.00,-0.88,1.00,-2.12,-0.01,0.00,0.06,3.87,83.12,108.94,0.44,-0.25,0.00,5,5
1772043006.358155,344815,-0.05,0.08,0.00,51.94,73.19,257.12,2.44,1.56,0.75,0.01,-0.10,0.08,3.87,83.19,108.87,-0.50,-1.44,-1.37,5,5
1772043006.548559,345006,0.00,0.02,0.06,50.88,72.81,256.50,2.06,0.31,2.50,0.01,0.00,0.07,3.69,83.44,108.94,0.44,-0.88,-0.56,4,5
1772043006.738895,345196,-0.06,0.00,0.08,50.88,72.56,255.81,2.06,0.56,1.31,0.00,0.00,0.12,3.62,83.44,108.87,-0.56,0.75,-0.37,4,4
1772043006.929491,345386,0.07,-0.15,0.08,49.63,72.37,255.00,9.44,-1.50,-0.69,0.00,0.02,0.12,3.50,83.56,109.19,1.37,-0.25,0.00,4,5
1772043007.120652,345577,-0.03,-0.02,0.04,49.50,72.44,254.56,-0.06,1.37,0.13,0.04,0.04,0.10,3.44,83.56,109.19,-0.62,-0.56,-1.00,4,5
1772043007.311071,345768,0.04,0.05,0.08,48.69,72.31,254.81,1.81,0.25,-0.94,0.01,-0.03,0.07,3.50,83.75,109.06,0.81,0.13,0.69,4,4
1772043007.501807,345959,0.02,0.04,0.06,48.44,72.25,254.69,-0.62,1.06,0.00,-0.01,0.01,0.06,3.50,83.75,109.12,0.00,-0.37,-0.25,4,4
1772043007.692900,346149,-0.06,-0.12,0.01,48.44,72.25,254.62,-0.06,-1.50,-0.69,-0.02,-0.03,0.08,3.44,83.87,109.31,-3.37,-1.94,-2.06,4,4
1772043007.882626,346340,0.01,0.14,0.09,48.38,72.12,255.19,-0.94,0.69,-1.81,-0.08,0.11,0.06,3.37,83.94,109.50,2.12,-0.75,1.62,5,4
1772043008.076437,346531,-0.09,-0.08,0.04,48.06,72.25,254.81,1.50,0.44,-2.06,0.00,0.00,0.05,3.62,83.81,109.00,-0.81,-0.44,0.00,6,3
1772043008.264016,346721,0.06,0.04,0.10,47.63,72.19,254.94,1.31,-1.62,-0.06,0.00,0.00,0.01,3.62,83.75,108.94,1.19,0.81,0.37,6,2
1772043008.454986,346912,0.02,0.04,0.04,47.88,72.25,254.69,-0.37,-0.88,-0.37,0.01,-0.02,0.09,3.62,83.75,108.94,0.13,0.94,-0.19,7,2
1772043008.644397,347101,0.00,0.01,0.06,47.75,72.25,254.37,3.19,-2.06,1.06,0.00,0.02,0.17,3.56,83.62,108.69,1.62,0.56,-0.13,8,3
1772043008.835089,347292,0.01,0.05,0.12,48.06,72.12,253.56,3.44,0.25,0.75,-0.02,0.04,0.09,3.37,83.75,108.81,0.88,-0.06,-1.44,8,2
1772043009.027719,347484,-0.05,-0.04,0.07,48.44,71.87,252.81,2.56,-0.75,1.75,0.00,0.00,0.11,3.31,83.69,108.62,-0.37,0.06,-0.69,7,1
1772043009.217322,347674,-0.04,0.08,0.07,48.13,71.69,252.62,-1.25,2.94,0.19,-0.01,0.04,0.16,3.19,83.75,108.75,1.12,0.00,-0.75,7,2
1772043009.408237,347865,-0.04,0.06,0.07,46.94,71.37,252.25,6.44,3.12,0.69,0.04,-0.03,0.10,3.25,83.56,108.19,1.94,0.69,0.50,6,2
1772043009.597807,348055,0.01,0.09,0.16,42.44,71.25,250.81,17.12,1.31,-2.06,0.02,0.04,0.12,3.37,83.44,107.62,3.69,1.44,0.44,5,2
1772043009.788426,348245,0.04,-0.10,0.04,39.31,70.75,249.19,7.25,5.06,-1.06,0.00,0.02,0.16,3.37,83.31,107.00,4.62,-2.19,1.37,4,2
1772043009.980116,348437,-0.13,-0.07,0.06,37.00,70.37,248.50,3.00,3.87,0.25,0.00,-0.03,0.14,3.50,83.44,106.44,0.25,-1.00,0.00,6,4
1772043010.171132,348628,0.16,0.04,0.19,37.06,70.37,248.75,-4.06,-2.87,1.19,-0.01,-0.06,0.04,3.56,83.56,106.19,0.88,-0.75,-0.13,6,5
1772043010.361994,348819,-0.07,-0.01,0.16,39.94,70.62,249.87,-20.87,0.69,-0.94,-0.01,0.04,0.11,3.31,83.75,106.87,-1.50,0.44,-2.06,6,5
1772043010.551539,349008,-0.05,0.07,-0.01,42.50,71.06,251.50,3.37,-0.81,-0.31,0.00,-0.04,0.23,3.25,83.69,107.25,-1.19,0.88,0.75,5,5
1772043010.742039,349199,0.08,0.00,-0.06,41.25,70.87,251.44,-0.62,4.62,-2.19,0.19,-0.02,-0.01,3.12,83.81,107.62,-4.94,-2.81,-2.94,5,6
1772043010.933320,349390,0.32,0.01,0.34,40.13,70.75,252.06,-7.50,-3.37,-1.69,0.01,-0.06,0.13,2.94,84.12,108.87,-3.62,-4.75,-1.87,5,7
1772043011.124455,349581,-0.18,0.22,-0.17,40.38,71.62,252.81,4.62,1.25,3.06,-0.02,-0.08,-0.07,2.81,84.25,108.62,-1.75,-1.94,-1.69,5,7
1772043011.315028,349772,0.05,0.21,-0.01,37.13,70.75,251.75,18.81,10.25,-3.06,-0.02,0.00,0.23,2.50,84.19,109.00,-1.31,2.31,-1.87,5,6
1772043011.504312,349961,-0.08,-0.17,0.09,35.94,69.87,250.06,-0.50,-2.62,3.62,0.00,0.01,0.14,2.44,84.25,108.87,2.62,0.25,1.81,5,6
1772043011.695000,350152,0.06,-0.31,0.15,37.19,69.94,250.00,-4.69,-1.44,0.31,-0.01,0.00,0.09,2.75,84.12,108.37,-0.94,-1.06,0.19,5,6
1772043011.886666,350343,-0.11,0.34,-0.03,39.88,70.75,251.81,-12.25,-10.13,1.75,-0.04,0.02,0.06,2.75,84.12,108.19,0.75,-2.69,0.75,3,4
1772043012.077990,350535,-0.17,-0.15,-0.10,41.19,71.19,251.69,1.19,3.56,0.56,0.01,-0.01,0.11,2.87,84.19,108.12,-3.44,-0.69,-1.37,3,3
1772043012.268541,350725,0.04,0.20,0.03,40.50,70.87,252.44,-3.75,1.75,2.25,-0.02,-0.04,0.13,2.50,84.37,109.00,-2.25,0.56,-1.94,3,4
1772043012.460126,350917,0.00,0.01,0.12,41.31,70.56,252.19,-0.25,1.00,-0.88,-0.01,-0.05,0.13,2.37,84.50,109.25,-0.44,-0.06,-0.44,3,4
1772043012.649247,351106,0.09,0.31,0.02,41.25,70.62,251.94,9.69,-0.88,3.94,-0.03,-0.01,0.17,2.56,84.44,108.94,1.44,-0.19,2.81,4,2
1772043012.841682,351298,-0.03,-0.17,0.08,42.69,70.62,250.31,-4.31,-2.06,-2.94,-0.01,0.01,0.07,2.75,84.37,108.69,-1.00,-0.56,-0.44,4,2
1772043013.032521,351490,0.02,0.00,0.00,42.88,71.00,251.12,-0.13,-1.31,-0.81,0.00,-0.01,0.05,2.81,84.44,108.75,0.00,-1.19,0.88,4,1
1772043013.224049,351681,0.03,-0.03,0.04,42.56,71.31,251.37,-0.94,-1.12,-4.31,-0.03,0.03,0.14,3.25,84.44,108.56,-1.69,-1.19,1.19,4,2
1772043013.414355,351871,0.00,0.09,0.01,41.81,71.75,252.12,1.69,2.31,-0.37,-0.01,-0.04,0.06,3.37,84.31,108.44,-0.19,-0.19,-0.13,4,1
1772043013.603335,352060,0.11,0.03,-0.01,38.88,71.00,251.50,13.13,8.94,0.50,-0.02,-0.05,0.17,3.37,84.19,108.44,0.69,1.62,0.56,5,2
1772043013.796110,352253,0.15,-0.14,0.17,36.69,70.44,250.56,-3.31,-1.37,0.88,0.04,0.00,0.24,3.31,84.12,108.50,-0.13,0.19,-1.19,5,2
1772043013.987812,352444,-0.67,0.60,0.00,47.00,73.25,252.12,-24.94,-53.19,-12.06,-0.04,0.29,-0.25,2.75,84.25,108.81,6.12,2.44,-1.31,5,2
1772043014.180631,352637,-0.33,-0.15,-0.28,57.63,75.75,253.06,-0.88,7.87,1.81,-0.01,-0.08,0.26,3.19,83.50,108.06,-1.69,1.50,1.87,6,2
1772043014.369567,352826,0.13,-0.15,0.01,53.75,75.62,252.94,2.69,1.12,-3.87,-0.01,-0.04,0.23,30.44,83.00,107.69,1.12,1.12,1.94,6,1
1772043014.558726,353016,-0.16,0.17,-0.16,53.63,75.81,253.50,-0.56,2.87,0.62,0.08,-0.01,0.09,3.56,83.31,107.31,1.56,-5.94,-1.56,6,2
1772043014.752287,353209,0.12,0.05,0.13,51.06,74.75,252.81,2.44,4.25,2.62,-0.11,0.05,-0.12,3.37,84.12,107.00,4.87,-4.25,-0.75,5,2
1772043014.943915,353401,0.12,-0.21,0.26,49.06,74.00,251.31,11.56,2.62,-0.25,-0.01,-0.14,0.20,3.37,84.00,106.44,3.56,-1.81,1.12,5,2
1772043015.135233,353592,0.18,0.24,0.03,49.38,74.00,251.31,-2.81,3.31,-0.50,-0.10,-0.04,0.16,3.50,84.06,106.06,-1.12,3.50,-1.00,5,2
1772043015.325737,353783,-0.06,-0.05,0.01,51.13,74.00,251.44,-3.00,-0.19,1.81,0.03,0.04,0.05,3.31,83.75,106.44,2.75,1.00,-0.19,5,2
1772043015.514855,353972,-0.10,0.10,-0.14,51.69,74.19,251.00,2.00,0.62,1.56,-0.03,-0.05,0.17,3.12,83.81,106.12,3.44,1.12,0.06,5,2
1772043015.706533,354163,0.02,-0.09,0.11,50.63,73.62,250.50,-1.50,4.25,-0.31,0.00,0.01,0.02,3.06,84.00,106.25,-2.06,-1.87,-0.94,5,2
1772043015.897267,354354,-0.16,0.10,0.00,48.38,73.19,251.06,0.06,4.75,-0.94,-0.03,0.04,0.00,3.00,84.12,106.56,-1.25,2.06,0.56,5,2
1772043016.088087,354545,0.26,-0.14,0.21,44.13,72.25,250.81,5.00,6.62,0.75,0.00,-0.01,0.06,3.06,84.06,106.81,-0.19,-1.00,-0.37,5,2
1772043016.277395,354734,-0.19,0.26,-0.16,43.56,72.00,250.56,7.31,2.31,2.06,-0.03,0.06,-0.03,3.00,84.12,106.62,3.37,0.88,1.19,5,2
1772043016.467971,354925,0.03,-0.42,0.26,40.88,70.81,248.06,6.87,-0.75,3.56,-0.01,-0.05,0.05,3.12,84.00,106.00,1.12,0.69,0.37,5,1
1772043016.659362,355116,0.11,0.05,0.10,42.63,70.94,248.19,-7.81,-5.00,0.81,0.01,0.03,0.06,3.12,84.00,106.19,-1.62,0.31,0.44,5,2
1772043016.850229,355307,-0.03,0.09,0.00,45.94,71.56,248.94,-3.81,-3.12,-0.56,0.00,0.02,0.06,3.12,84.00,106.37,-0.62,1.37,0.00,5,3
1772043017.041089,355498,-0.05,0.04,0.00,46.63,71.81,249.19,-1.87,-1.81,0.00,0.00,-0.09,0.05,3.06,83.94,106.50,-3.00,-1.81,-1.19,5,3
1772043017.230272,355687,0.05,0.03,0.06,47.38,72.06,249.94,-5.06,-1.62,-0.56,0.00,0.03,0.11,3.06,84.00,107.00,-2.31,0.25,0.37,4,3
1772043017.419387,355876,-0.09,0.08,-0.02,50.13,72.44,251.31,-15.94,-0.13,0.13,0.00,0.00,0.11,3.19,84.00,107.37,-2.25,0.37,0.50,4,2
1772043017.611851,356069,0.06,0.11,0.02,49.50,72.75,252.44,5.37,2.19,0.19,-0.01,0.05,0.08,3.19,84.00,107.56,2.25,-0.56,0.50,6,3
1772043017.803052,356260,-0.01,-0.07,0.00,48.56,72.62,251.81,1.25,-0.62,0.81,0.03,-0.07,0.09,3.12,83.94,107.37,-1.25,-0.13,-1.44,5,4
1772043017.993556,356451,0.01,0.17,-0.01,48.38,72.56,251.94,0.56,1.87,-0.06,0.00,0.02,0.09,3.12,84.06,107.50,0.13,-0.44,0.19,6,4
1772043018.184323,356641,-0.05,0.13,-0.02,47.38,72.37,251.44,5.06,1.06,0.62,0.02,0.03,0.06,3.12,84.00,107.31,0.50,-0.31,-0.19,6,4
1772043018.374891,356832,-0.03,0.14,-0.04,43.69,71.75,250.00,21.62,11.25,-1.75,-0.03,0.03,0.19,3.12,83.87,107.25,0.94,0.44,0.13,6,4
1772043018.565627,357023,0.19,-0.07,0.20,37.19,70.44,247.50,14.69,5.94,1.62,-0.08,0.05,0.15,3.12,83.81,107.19,1.50,-0.69,-0.62,6,4
1772043018.755949,357213,0.01,-0.08,0.24,35.94,69.81,246.12,2.87,-0.37,1.06,0.03,0.01,0.00,3.00,83.75,107.19,0.31,5.37,-2.50,6,3
1772043018.946977,357404,0.05,-0.05,0.10,37.25,69.69,245.81,-2.81,-3.06,3.56,-0.02,0.00,0.16,2.69,83.50,107.56,0.00,-1.25,-0.13,6,3
1772043019.136198,357593,0.44,-0.33,0.51,42.81,70.06,246.12,-16.50,-7.75,1.06,-0.03,0.02,0.16,2.87,83.87,107.31,2.00,-7.37,1.50,6,3
1772043019.325595,357783,-0.65,0.36,-0.61,50.94,72.00,248.62,-15.94,0.13,3.81,-0.08,0.10,0.00,3.37,83.81,106.37,-1.56,5.75,4.81,7,3
1772043019.518619,357975,0.19,0.00,0.21,49.50,71.31,249.50,-2.87,-2.94,-4.00,-0.09,0.04,0.03,3.87,83.50,106.19,-1.31,-0.88,-0.62,4,2
1772043019.709363,358166,-0.11,0.19,-0.06,50.25,72.25,251.25,-10.75,-0.81,-3.12,0.05,0.01,0.09,3.69,83.81,106.69,-1.81,-1.06,-0.62,4,2
1772043019.899663,358357,-0.04,0.07,-0.04,49.19,72.25,251.87,3.19,2.12,-0.06,0.02,0.02,0.10,3.69,83.75,106.81,0.69,-0.06,0.50,4,2
1772043020.089076,358546,0.11,-0.25,0.17,49.13,71.37,251.06,3.62,0.75,7.06,0.03,-0.09,0.00,3.94,83.69,106.75,-0.19,-4.12,2.37,3,3
1772043020.278738,358736,0.04,0.33,0.00,48.69,71.69,251.31,-5.25,-0.25,-4.62,0.05,-0.07,0.00,4.12,83.62,106.75,-1.94,-1.75,-1.06,3,3
1772043020.471005,358928,-0.02,0.23,-0.03,47.06,71.87,252.00,4.37,3.25,0.62,0.03,0.00,0.00,4.06,83.62,106.62,2.25,0.62,-0.50,3,3
1772043020.661933,359119,0.16,0.17,-0.02,41.94,71.12,249.75,28.19,6.19,3.94,0.01,0.02,0.11,3.94,83.44,106.25,3.37,0.56,-0.69,4,3
1772043020.852731,359310,-0.02,-0.39,0.15,38.81,70.12,245.50,11.38,2.25,2.50,0.01,0.15,-0.03,3.62,83.50,106.06,1.12,-1.12,-1.56,4,3
1772043021.043644,359500,0.01,-0.11,0.17,39.63,69.25,244.62,-1.69,-2.56,1.81,-0.04,0.11,0.06,3.50,83.62,106.12,-1.06,-0.37,-0.37,4,3
1772043021.234033,359691,-0.05,-0.11,0.06,44.06,69.94,245.81,-24.81,-8.88,-2.31,-0.03,0.08,0.02,3.56,83.62,106.31,-0.44,0.31,0.50,4,3
1772043021.424644,359882,0.08,0.25,-0.09,47.88,71.31,249.19,-6.56,-1.12,-5.44,0.00,0.07,0.08,3.69,83.56,106.31,-2.31,0.25,0.81,4,3
1772043021.615445,360072,-0.05,-0.22,0.12,49.38,71.37,249.06,-2.37,2.44,1.31,-0.03,0.08,0.14,3.69,83.62,107.37,-2.94,-2.19,-3.19,4,3
1772043021.805904,360263,-0.01,0.06,-0.10,48.88,71.62,250.00,1.94,0.19,-0.88,0.01,-0.13,0.07,3.62,83.69,107.37,0.44,0.19,0.62,4,3
1772043021.995598,360453,0.00,0.04,0.04,47.81,71.62,250.19,-1.19,3.12,-2.19,-0.02,0.04,0.03,3.62,83.87,107.37,0.50,-0.88,-1.37,4,3
1772043022.186040,360643,0.02,0.06,0.02,47.19,71.56,250.37,1.81,-0.50,1.25,0.00,0.03,0.06,3.50,83.94,107.44,1.12,-0.13,-0.06,5,2
1772043022.377692,360835,-0.01,0.00,0.00,46.75,71.50,250.00,2.31,0.19,-0.06,0.00,0.01,0.07,3.44,83.94,107.31,0.56,-0.50,-0.44,4,2
1772043022.568043,361026,0.00,0.00,0.01,46.31,71.37,249.75,1.44,1.06,0.75,0.00,0.06,0.01,3.44,84.00,107.31,0.69,-0.37,-0.56,4,3
1772043022.758838,361216,-0.02,-0.02,0.00,46.00,71.06,249.31,3.44,1.87,1.31,-0.02,0.06,0.01,3.44,84.00,107.31,0.69,1.00,0.37,4,2
1772043022.948096,361406,0.05,-0.10,0.09,44.88,70.81,248.69,3.37,2.19,0.37,0.00,0.01,0.11,3.37,83.94,107.19,1.44,0.62,0.56,4,2
1772043023.139846,361597,-0.03,-0.03,0.00,44.38,70.81,248.37,0.06,-0.62,0.06,0.00,0.01,0.06,3.37,84.00,107.12,0.06,0.75,0.19,4,2
1772043023.330941,361788,0.06,0.01,0.08,44.50,70.94,248.44,0.37,-2.37,0.37,0.00,0.02,0.08,3.37,83.81,107.00,0.25,0.31,-0.56,5,3
1772043023.521787,361979,-0.30,-0.14,-0.07,45.94,72.62,246.69,37.63,-29.87,-13.56,0.06,0.03,-0.02,3.12,83.81,106.37,7.75,-3.94,-1.37,5,4
1772043023.711995,362169,-0.06,-0.23,0.01,46.63,73.06,243.62,1.81,4.12,4.56,-0.01,0.03,0.00,2.87,83.69,105.87,3.44,1.25,-1.94,5,4
1772043023.901471,362359,-0.01,-0.12,0.12,46.75,72.50,243.06,0.69,-2.87,4.44,0.02,0.00,0.00,2.69,83.69,105.25,1.25,-0.56,0.13,4,3
1772043024.091495,362549,-0.05,-0.13,0.04,49.31,72.56,242.94,-7.81,-2.37,-1.75,0.09,-0.01,0.13,2.56,83.75,105.81,-5.25,1.19,-1.31,5,5
1772043024.283714,362741,-0.04,0.06,-0.01,51.19,72.69,244.50,-8.88,0.44,-1.62,0.02,-0.01,0.12,2.62,83.87,107.00,-4.31,-1.06,0.88,6,5
1772043024.474455,362932,-0.02,0.09,0.02,52.13,73.19,246.00,-3.75,2.81,-2.00,0.00,0.03,0.00,2.81,83.75,107.31,-1.06,-0.19,0.37,5,5
1772043024.665064,363122,0.00,0.05,-0.01,50.75,73.06,246.56,-1.31,1.94,1.00,-0.01,-0.03,0.02,2.81,83.87,107.37,-0.81,-1.12,0.13,6,5
1772043024.855553,363313,-0.02,0.07,0.00,49.94,73.00,246.81,-1.87,1.75,-1.19,0.04,-0.06,0.08,2.81,84.00,107.44,-0.69,-1.19,0.37,6,6
1772043025.045850,363503,-0.46,0.28,-0.24,47.69,72.87,247.25,5.06,12.63,-1.81,0.00,-0.02,0.18,2.81,84.00,107.37,0.88,-0.06,1.06,7,6
1772043025.237091,363694,0.14,-0.10,0.17,41.25,71.56,246.75,3.44,1.19,0.69,-0.01,0.01,-0.03,2.81,84.06,107.19,0.75,-0.25,-0.81,7,4
1772043025.427625,363885,0.00,-0.08,0.11,41.44,71.37,246.44,-0.06,-0.75,1.44,0.00,0.02,0.05,2.81,84.06,107.19,-0.94,-0.31,0.25,8,4
1772043025.618319,364075,-0.01,0.03,-0.01,41.50,71.44,246.56,-0.62,-1.12,-0.81,0.01,-0.01,0.10,2.87,84.00,107.12,-1.19,0.25,0.37,10,6
1772043025.808758,364266,0.11,0.09,0.10,41.56,71.50,246.75,0.69,-0.56,-0.37,0.01,-0.14,0.06,2.94,84.06,107.25,-1.50,-1.75,0.13,11,6
1772043025.998696,364456,0.01,0.12,0.00,43.50,71.69,247.50,-13.56,0.13,1.06,0.00,0.01,0.08,2.87,84.25,107.62,-1.19,0.19,0.00,10,4
1772043026.190193,364647,-0.03,0.00,-0.03,44.81,71.75,248.00,2.75,-2.44,1.06,0.01,-0.02,0.08,2.87,84.25,107.62,0.25,-0.44,0.25,10,4
1772043026.380821,364838,-0.03,0.00,0.04,44.81,71.75,247.81,0.19,0.62,-0.75,0.01,-0.04,0.05,2.87,84.25,107.62,-0.06,-0.94,-0.44,10,4
1772043026.571265,365029,-0.02,0.06,-0.04,45.13,71.75,248.00,-2.69,-0.62,0.06,0.01,0.01,0.05,2.75,84.37,107.94,0.13,0.88,-1.00,9,4
1772043026.761294,365219,0.02,-0.01,0.07,45.06,71.75,248.12,1.44,-0.31,-0.56,0.00,-0.02,0.08,2.69,84.37,107.87,0.69,1.12,0.13,8,3
1772043026.952668,365410,-0.06,0.03,-0.03,45.00,71.75,248.06,0.81,0.62,-0.69,-0.02,-0.02,0.10,2.69,84.37,107.87,-0.25,-0.50,0.25,7,3
1772043027.142969,365601,0.09,0.07,0.06,42.88,71.37,247.94,6.12,4.06,-0.75,0.00,-0.03,0.00,2.75,84.37,107.81,0.50,-0.69,0.13,6,3
1772043027.333669,365791,-0.08,-0.06,0.08,40.56,70.75,247.25,1.50,0.88,2.50,-0.02,-0.02,0.04,2.50,84.19,107.94,-0.81,0.75,-3.00,6,3
1772043027.524404,365982,0.09,0.05,0.15,40.88,70.37,247.06,-0.50,-4.37,1.31,-0.02,-0.06,0.02,2.19,84.25,108.31,0.06,-0.31,-1.31,4,2
1772043027.714414,366172,0.03,-0.03,0.06,43.19,70.56,246.94,-5.75,-1.12,0.19,0.01,-0.07,0.20,2.06,84.12,108.62,1.56,1.12,-0.75,4,2
1772043027.904917,366362,-0.13,-0.13,0.00,44.38,70.75,247.12,0.44,-0.88,0.69,-0.03,-0.07,0.17,2.06,84.06,108.56,1.69,0.81,0.13,5,1
1772043028.096239,366553,-0.10,0.05,-0.04,43.75,70.87,247.25,2.75,1.56,1.12,0.07,-0.14,0.06,2.12,84.06,108.37,-0.69,0.69,-0.94,5,2
1772043028.287127,366744,0.18,0.13,0.13,43.00,70.37,247.31,-1.44,0.37,-1.00,-0.08,-0.05,-0.01,1.87,84.06,108.69,0.88,-2.31,-1.06,4,2
1772043028.477668,366935,0.10,-0.23,0.04,43.63,70.19,246.87,-0.06,0.31,-1.50,-0.02,-0.04,0.15,1.94,84.00,108.62,1.50,1.37,0.56,4,2
1772043028.667375,367125,-0.09,0.00,-0.08,43.94,70.44,247.06,-0.06,0.75,1.37,-0.03,-0.07,0.05,1.87,83.81,108.75,1.62,1.00,-1.62,4,2
1772043028.857907,367315,0.10,-0.21,0.19,42.88,69.87,246.62,1.37,0.69,-0.31,0.00,-0.07,0.05,1.87,83.75,108.75,1.25,0.69,-0.62,4,2
1772043029.049644,367507,-0.10,-0.04,0.01,44.00,70.12,246.62,0.62,-2.37,3.56,-0.06,0.00,0.06,1.75,83.94,108.81,-1.56,-1.94,-0.62,4,2
1772043029.240404,367698,0.00,0.09,-0.13,44.56,70.25,246.94,1.94,-0.69,-3.25,0.00,-0.07,0.07,1.94,83.94,108.37,0.69,-0.62,2.12,4,2
1772043029.431037,367888,0.34,-0.04,0.19,42.50,70.12,247.06,3.81,4.06,-2.25,-0.03,-0.06,0.07,2.12,84.00,108.19,1.56,-1.87,1.87,4,1
1772043029.620675,368078,0.04,-0.03,0.00,40.13,70.37,246.75,16.75,3.37,-5.25,-0.02,-0.07,0.12,2.25,83.87,107.94,-1.56,-0.69,0.00,4,2
1772043029.810036,368267,0.04,0.01,0.15,39.13,70.06,246.94,-12.13,-0.37,1.69,-0.02,-0.11,0.02,2.12,84.00,108.25,-1.12,-0.62,-1.87,3,2
1772043030.002276,368459,-0.13,0.23,-0.09,42.50,70.50,248.19,-4.56,-2.87,-1.37,-0.04,-0.03,0.13,1.94,84.00,108.62,-0.62,1.50,-0.31,4,2
1772043030.193373,368650,0.07,-0.06,-0.02,42.88,70.56,248.25,-2.94,-2.06,0.69,-0.02,-0.09,0.11,2.00,83.87,108.62,1.62,-0.37,1.00,5,1
1772043030.384435,368842,0.00,-0.01,-0.03,43.69,71.12,248.56,-2.25,-1.19,-1.62,0.00,-0.06,0.03,2.12,83.87,108.56,-0.44,-1.19,0.44,5,1
1772043030.573587,369031,0.20,0.00,0.34,43.75,71.44,248.94,0.69,-2.25,-2.62,-0.01,-0.14,-0.07,2.06,83.94,108.44,2.87,4.37,-3.06,6,1
1772043030.763768,369221,-0.12,0.20,-0.25,46.00,72.00,249.06,-1.94,-0.13,6.69,0.00,-0.06,0.12,1.50,83.56,108.81,-0.69,-0.81,-0.81,6,1
1772043030.956112,369413,-0.06,-0.23,-0.14,47.81,71.37,248.19,-1.31,-1.25,-2.81,-0.03,-0.01,0.15,1.69,83.44,108.87,-0.75,-0.50,0.37,6,2
1772043031.146844,369604,-0.16,0.13,-0.20,45.94,71.37,248.94,5.00,10.81,-1.19,-0.03,0.00,0.01,1.75,83.69,108.94,1.00,-1.37,-0.25,5,2
1772043031.338075,369795,0.25,-0.26,0.25,38.25,69.81,248.06,9.56,7.87,-1.25,0.00,-0.07,-0.08,1.94,83.87,108.44,1.00,-1.69,1.37,5,2
1772043031.529030,369986,-0.02,0.00,0.06,36.13,69.25,247.87,1.25,0.00,0.13,-0.03,-0.01,-0.02,2.00,84.12,108.37,0.13,-2.50,0.13,4,1
1772043031.718364,370176,0.31,0.00,0.33,35.19,68.94,247.81,0.37,-0.13,1.50,0.00,-0.13,0.07,2.00,84.12,108.31,0.88,-0.50,-0.13,5,1
1772043031.910296,370367,-0.08,-0.11,-0.01,38.94,69.94,247.62,-9.56,-13.13,1.19,-0.01,-0.01,0.05,2.00,84.25,108.50,-0.25,-0.06,0.25,5,1
1772043032.102059,370559,-0.08,0.09,-0.15,43.00,71.25,248.44,-1.44,-2.81,-0.44,-0.04,-0.04,0.11,2.12,84.19,108.44,-0.81,1.12,0.37,7,2
1772043032.294419,370752,-0.17,0.07,-0.24,43.75,71.44,248.56,-0.06,0.00,-0.31,-0.01,-0.07,0.07,2.19,84.12,108.44,-0.31,-0.75,0.62,7,3
1772043032.486143,370944,0.07,0.03,0.09,42.56,71.31,248.62,0.00,1.44,-1.19,0.00,-0.05,0.00,2.25,84.25,108.37,0.19,-0.31,0.50,7,3
1772043032.677945,371135,0.00,0.04,0.07,42.13,71.31,248.62,-0.37,-0.31,-0.37,0.00,-0.07,0.00,2.25,84.25,108.37,0.37,-0.62,0.31,7,3
1772043032.867054,371324,0.02,0.04,0.00,42.25,71.37,248.69,-2.25,-0.37,-0.25,0.00,-0.05,0.07,2.31,84.25,108.56,-1.62,0.50,-0.37,7,2
1772043033.059178,371517,-0.02,0.10,-0.10,42.69,71.44,248.81,0.44,-1.31,-0.13,0.00,-0.05,0.08,2.31,84.19,108.50,1.00,0.13,0.69,9,3
1772043033.250651,371708,0.01,0.11,0.03,42.13,71.37,248.75,0.19,2.25,-0.88,0.00,-0.03,0.04,2.31,84.31,108.50,0.31,-0.19,-0.19,9,3
1772043033.442684,371900,-0.01,0.02,-0.02,41.00,71.06,248.50,2.75,2.31,0.94,-0.01,-0.06,0.07,2.31,84.37,108.37,-0.13,-0.88,-0.06,9,3
1772043033.632545,372090,0.08,-0.01,0.05,40.25,70.87,248.31,-0.44,-0.88,-1.87,0.00,-0.05,0.06,2.31,84.37,108.37,-0.31,0.25,0.00,9,3
1772043033.823022,372280,-0.05,-0.01,0.00,41.13,71.12,248.44,-1.00,-2.44,1.62,-0.01,-0.04,0.09,2.25,84.31,108.44,0.13,0.94,-0.50,8,3
1772043034.014584,372472,-0.03,0.06,0.00,41.63,71.19,248.62,-0.31,1.69,0.56,-0.03,-0.04,0.11,2.25,84.19,108.56,-1.25,0.06,0.50,5,2
1772043034.207999,372665,0.00,-0.04,-0.02,41.56,71.25,248.87,-3.56,-1.81,-1.81,-0.05,-0.11,0.05,2.31,84.31,108.56,-2.37,-0.81,0.56,6,2
1772043034.400663,372858,-0.04,0.19,0.05,41.00,71.56,250.94,-14.56,2.00,-4.12,-0.01,-0.05,0.05,2.31,84.31,108.87,-1.44,-0.62,-0.44,7,2
1772043034.592647,373050,0.00,0.06,0.00,41.63,71.81,252.62,-2.75,-2.69,-0.06,0.02,-0.07,0.12,2.31,84.31,109.12,-2.00,-0.37,-0.50,7,2
1772043034.782053,373239,-0.11,0.12,-0.11,42.56,72.06,253.06,-2.12,0.31,-0.50,0.01,-0.07,0.14,2.25,84.50,109.50,-1.50,-0.31,-0.50,6,2
1772043034.972050,373429,-0.02,0.00,-0.04,42.13,71.87,253.06,0.94,0.88,0.62,0.00,-0.06,0.07,2.31,84.75,109.62,-0.25,-1.94,0.00,5,2
1772043035.165373,373623,-0.31,0.40,-0.28,39.31,71.37,252.69,17.19,12.94,-0.37,0.00,-0.06,0.17,2.31,84.81,109.56,1.06,1.12,0.44,7,3
1772043035.356666,373814,0.07,-0.34,0.24,32.25,69.56,249.44,12.69,-0.44,4.50,0.00,-0.13,0.00,2.31,84.81,109.19,1.25,-1.56,-0.56,8,3
1772043035.547328,374005,0.01,0.12,0.10,33.13,69.06,248.75,-1.50,0.25,1.56,0.01,0.00,0.10,2.12,84.94,109.25,0.56,0.88,0.06,8,4
1772043035.738443,374196,0.01,-0.13,0.06,33.75,69.00,248.25,0.13,-2.31,0.44,-0.02,-0.07,0.09,2.25,84.81,109.12,0.00,0.44,0.88,9,4
1772043035.927786,374385,0.02,0.00,0.01,34.81,69.62,248.87,-8.81,-4.37,-4.00,-0.04,0.08,0.01,2.69,84.31,108.62,0.37,1.50,5.12,11,5
1772043036.119698,374577,0.11,0.01,0.04,37.50,70.06,250.87,-19.69,-2.37,-4.69,0.01,-0.03,0.05,3.19,83.87,108.62,-3.12,-4.19,-2.50,11,5
1772043036.310204,374768,0.00,0.18,-0.03,37.88,70.81,253.19,0.44,-0.81,0.31,0.00,-0.09,0.10,3.06,84.19,109.06,-1.56,-0.25,0.06,9,5
1772043036.501080,374958,-0.03,0.14,-0.04,38.56,70.87,253.12,-2.25,-1.19,-0.31,0.00,-0.01,0.11,2.94,84.37,109.44,0.25,0.37,-0.19,9,5
1772043036.691582,375149,-0.07,-0.02,-0.01,38.94,71.06,253.06,1.37,-0.88,0.13,0.00,-0.02,0.07,2.94,84.37,109.37,0.69,0.25,-0.19,12,7
1772043036.880779,375338,-0.05,0.10,-0.09,38.38,71.00,252.94,3.81,2.06,0.56,0.02,0.00,0.13,2.87,84.31,109.37,1.50,1.00,-0.69,12,7
1772043037.072302,375530,0.09,-0.05,0.12,36.13,70.37,251.56,12.13,3.87,1.94,0.02,0.01,0.03,2.81,84.37,109.19,1.06,-0.69,-0.75,10,6
1772043037.263367,375721,-0.13,-0.05,-0.06,33.88,69.44,249.81,11.44,7.50,1.25,-0.02,-0.02,0.15,2.81,84.25,108.94,1.75,1.25,1.69,9,5
1772043037.454034,375911,-0.09,0.05,0.05,32.06,68.69,249.06,-0.56,1.12,0.75,-0.03,-0.04,0.00,2.81,84.06,108.94,-3.31,2.87,-3.69,10,5
1772043037.643431,376101,0.32,0.03,0.23,33.13,68.44,249.19,-4.56,-3.94,4.12,0.00,-0.10,0.08,2.06,83.62,110.12,-1.31,1.94,-4.12,10,6
1772043037.832882,376290,0.10,-0.10,0.05,39.94,68.94,249.37,-16.12,-11.31,3.69,0.05,-0.03,0.11,1.62,83.87,110.87,0.69,-1.50,-0.75,8,5
1772043038.025123,376483,-0.05,0.02,-0.12,44.00,70.00,250.06,0.94,-2.37,-0.81,0.02,-0.10,0.10,1.87,83.81,110.37,0.25,-1.62,2.00,8,4
1772043038.216180,376674,0.00,0.12,-0.09,42.69,70.25,250.25,1.12,1.31,-3.50,-0.01,-0.08,0.04,2.06,83.75,110.12,-0.62,0.44,-1.00,8,4
1772043038.406533,376864,0.02,0.02,0.06,41.25,69.75,250.37,0.75,5.56,0.81,0.02,-0.07,0.18,1.81,83.75,110.69,2.31,1.75,-0.94,8,5
1772043038.596381,377054,0.05,-0.25,0.18,41.13,69.37,250.12,-1.25,-2.12,1.06,-0.01,0.03,0.08,1.81,84.00,110.62,0.37,-2.12,0.88,5,3
1772043038.787555,377245,-0.12,0.13,-0.15,41.50,69.81,250.37,2.44,0.44,-0.50,0.00,-0.04,0.09,2.00,84.00,110.19,0.69,-1.06,0.69,5,3
1772043038.978636,377436,0.15,0.27,-0.08,36.13,68.94,249.44,23.87,14.44,-4.44,-0.04,-0.07,0.26,2.12,83.87,109.75,3.75,-0.56,1.50,5,3
1772043039.169443,377627,-0.16,-0.26,0.12,33.25,68.00,247.12,1.44,0.00,1.62,-0.01,-0.04,-0.02,2.25,84.06,109.50,-0.50,1.06,-1.06,5,3
1772043039.359932,377817,-0.03,0.10,0.11,33.44,67.81,247.44,0.06,-0.75,0.31,-0.04,0.00,0.00,2.12,84.19,109.56,-0.69,-0.06,-0.44,4,3
1772043039.549418,378007,-0.02,-0.14,0.01,34.44,67.94,247.62,-7.37,-3.19,1.19,-0.01,0.00,0.15,2.25,84.12,109.56,-0.19,1.25,1.62,5,2
1772043039.740376,378197,-0.03,0.14,0.07,38.19,68.19,250.25,-37.88,-1.12,-4.37,-0.02,0.01,0.04,2.44,84.12,109.62,-2.19,-2.00,0.31,5,2
1772043039.931689,378389,-0.10,0.26,-0.19,42.00,68.75,253.37,-10.88,0.75,13.06,0.00,-0.19,0.10,2.81,84.12,109.81,-1.94,-0.06,1.81,5,3
1772043040.122173,378580,0.07,0.05,0.00,42.69,68.31,253.00,5.87,-2.75,-7.00,0.03,-0.02,0.08,2.81,84.12,109.94,-0.25,-0.19,2.00,5,3
1772043040.312831,378770,-0.02,0.12,-0.02,42.69,68.94,253.50,-9.69,1.56,-0.19,-0.04,0.00,0.04,3.12,83.87,109.50,0.00,0.56,-0.06,5,3
1772043040.503294,378961,0.00,0.11,-0.03,42.56,69.19,254.37,0.56,0.13,-0.06,0.01,-0.02,0.08,3.12,83.87,109.50,0.37,0.06,0.13,5,3
1772043040.693400,379151,-0.21,0.36,-0.20,40.50,69.06,253.87,15.13,6.81,-0.56,-0.01,0.03,0.02,3.00,84.00,109.50,3.06,0.00,-0.69,5,4
1772043040.884627,379342,0.15,-0.48,0.32,33.56,68.12,250.44,21.87,-2.25,4.25,0.04,-0.07,0.02,2.94,84.00,109.19,1.87,-1.19,-1.94,5,4
1772043041.075188,379533,-0.11,0.04,0.05,34.19,67.69,248.81,-2.00,1.19,0.94,0.01,0.02,0.06,2.56,84.25,109.44,0.13,1.25,-1.00,5,4
1772043041.266121,379724,0.10,-0.25,0.16,34.88,67.69,248.69,-2.69,-6.00,0.81,-0.02,-0.02,0.07,2.56,84.12,109.37,-1.44,-0.75,0.06,5,4
1772043041.455862,379913,-0.18,0.15,-0.08,39.44,68.62,250.00,-15.25,-3.69,-2.37,-0.01,-0.01,0.06,2.56,84.12,109.56,-1.69,-0.44,0.62,5,4
1772043041.647057,380105,0.12,0.16,0.06,39.88,69.19,251.94,-2.56,-1.44,-2.62,0.03,-0.04,0.09,2.75,84.06,109.44,0.62,1.06,1.25,5,4
1772043041.838277,380296,0.04,0.09,-0.01,39.88,69.87,252.44,-1.37,-1.94,-1.06,-0.01,0.00,0.06,2.87,84.06,109.44,-0.94,-0.75,-0.25,6,3
1772043042.028755,380486,-0.01,0.05,-0.03,41.13,70.31,252.50,-0.37,-1.87,-0.44,-0.03,0.00,0.07,2.87,84.12,109.69,-0.69,-0.62,0.06,6,3
1772043042.219015,380677,-0.05,0.05,-0.01,41.00,70.69,252.44,1.12,-1.00,-1.44,0.01,0.00,0.02,2.94,84.12,109.69,-0.06,-0.25,0.31,7,3
1772043042.409394,380867,-0.08,0.19,-0.09,40.44,70.69,252.37,3.12,2.25,0.75,0.00,-0.01,0.10,2.87,84.19,109.69,0.88,-0.31,-0.88,8,3
1772043042.599966,381058,0.34,0.00,0.25,35.44,69.56,251.12,23.69,15.63,-0.25,-0.03,-0.01,0.24,2.81,84.19,109.56,1.56,-1.06,-0.19,8,2
1772043042.791337,381249,-0.12,-0.13,0.12,34.94,69.37,249.44,-4.44,-0.75,0.06,0.01,-0.02,0.02,2.75,84.31,109.37,-0.81,-0.13,-0.69,7,2
1772043042.981485,381439,0.08,0.01,0.21,35.75,69.31,250.12,-3.31,1.19,-0.69,-0.01,0.00,0.12,2.69,84.37,109.44,-0.06,0.00,0.62,7,2
1772043043.172301,381630,-0.09,-0.10,0.02,38.25,69.69,251.12,-15.13,-2.12,-2.44,-0.06,0.06,0.03,2.75,84.44,109.87,-4.81,-0.69,-0.25,6,2
1772043043.361581,381819,0.00,0.18,0.04,39.81,70.19,253.56,-8.56,-1.62,-3.81,-0.01,0.00,0.07,2.87,84.50,110.50,-3.25,-0.50,0.81,6,2
1772043043.552910,382010,-0.04,0.01,-0.01,40.44,70.81,254.75,-4.37,-1.87,-2.75,0.00,-0.01,0.13,3.12,84.31,110.69,-1.75,-0.25,1.56,5,1
1772043043.744132,382202,0.11,0.33,0.03,41.00,71.50,255.56,1.37,-6.19,0.13,0.00,-0.01,0.03,3.44,84.19,110.69,-0.56,-0.37,1.00,5,1
1772043043.934473,382393,0.00,0.04,0.01,42.00,71.87,255.06,-1.00,1.25,0.81,0.00,0.00,0.07,3.50,84.12,110.62,0.37,0.50,-0.44,5,1
1772043044.125092,382583,-0.01,-0.01,-0.05,42.06,71.75,255.06,0.88,2.00,-1.00,0.02,0.00,0.10,3.44,84.06,110.56,1.75,0.81,-0.06,4,2
1772043044.314377,382772,-0.02,0.22,-0.05,37.69,71.31,254.12,28.94,14.31,1.75,-0.10,0.02,0.23,3.44,83.94,110.25,2.12,1.56,0.19,4,2
1772043044.506445,382964,-0.08,-0.20,0.06,33.00,69.81,250.31,13.44,3.62,3.62,-0.01,0.00,0.00,3.31,83.94,110.00,0.56,0.37,-1.12,4,2
1772043044.697446,383155,-0.09,-0.10,0.16,31.19,68.94,249.06,-0.56,2.06,0.50,-0.01,0.04,0.04,3.25,83.87,109.81,1.44,2.25,1.31,4,2
1772043044.888352,383346,-0.10,-0.08,0.01,31.56,68.75,249.25,-3.44,-3.06,-0.62,-0.04,0.08,0.01,3.19,83.94,110.06,-1.50,-2.25,-0.81,5,2
1772043045.078083,383536,0.07,-0.06,0.06,32.19,68.94,249.75,-2.25,-1.25,1.06,0.01,-0.07,0.10,3.25,83.87,110.00,0.37,1.37,1.81,5,2
1772043045.267959,383725,-0.16,-0.02,0.06,33.88,69.56,250.75,-14.13,-4.37,-4.37,-0.04,-0.10,0.02,3.87,83.37,109.31,0.13,-0.19,1.87,5,2
1772043045.459612,383917,0.10,0.14,0.03,36.13,70.25,253.44,-17.06,-6.44,-0.44,0.00,0.05,-0.04,3.87,83.44,109.56,-2.50,-1.44,-1.94,5,2
1772043045.650865,384108,-0.02,0.04,-0.05,37.88,70.81,254.44,1.00,-1.37,0.56,-0.05,0.03,0.08,3.75,83.56,109.87,-0.75,-1.94,-1.50,5,2
1772043045.841065,384299,-0.02,0.00,0.00,38.13,70.62,254.12,2.87,0.31,1.37,0.00,0.06,0.09,3.62,83.75,110.12,-0.50,-0.88,-1.06,4,2
1772043046.031523,384489,-0.02,-0.05,0.04,37.88,70.31,253.44,4.06,1.50,0.25,-0.01,0.00,0.07,3.50,83.87,110.19,0.75,-0.69,-0.25,5,2
1772043046.220521,384679,0.00,0.09,-0.04,35.50,69.81,252.62,11.44,7.31,-1.31,0.00,0.03,0.15,3.50,83.81,110.00,1.75,-0.25,0.25,4,2
1772043046.412823,384871,-0.04,-0.16,0.15,32.56,68.94,251.12,4.94,1.81,2.62,0.02,-0.01,0.08,3.44,83.94,109.87,1.19,0.75,-1.06,4,2
1772043046.604046,385062,0.08,-0.16,0.12,33.06,68.69,250.56,-0.62,-2.00,2.50,-0.05,0.06,0.04,3.25,84.06,110.00,1.00,-0.25,-0.37,5,2
1772043046.794548,385252,-0.16,0.13,-0.05,37.06,69.31,251.31,-8.69,-4.00,1.44,-0.02,0.00,0.03,3.25,84.00,109.87,1.56,1.81,0.88,5,2
1772043046.984711,385442,-0.03,-0.12,-0.04,38.25,69.75,251.44,-1.12,-3.31,-1.37,-0.02,0.01,0.09,3.44,83.75,109.62,0.94,0.00,1.75,5,1
1772043047.174497,385632,-0.01,0.05,-0.04,38.44,70.31,251.94,-2.56,-1.75,-0.50,-0.01,0.01,0.14,3.62,83.69,109.50,-2.56,-0.50,-0.69,6,3
1772043047.366155,385824,0.10,-0.06,0.10,39.13,70.44,252.44,-3.12,-0.88,-0.62,0.04,-0.03,0.16,3.56,83.69,109.94,-1.81,0.50,-1.06,6,3
1772043047.557000,386015,-0.09,0.12,-0.04,39.81,70.75,253.06,-0.69,3.06,0.00,0.01,0.05,0.05,3.50,83.87,110.12,-0.31,-0.62,-0.31,5,3
1772043047.747574,386206,-0.13,0.22,-0.14,37.56,70.00,252.75,10.69,9.50,-0.94,-0.02,0.03,0.22,3.50,83.81,110.00,0.88,0.75,0.00,5,3
1772043047.938483,386396,-0.09,-0.23,0.07,34.69,69.19,251.31,-0.56,0.44,0.19,0.00,0.02,-0.02,3.50,83.94,110.00,0.50,0.44,-0.31,5,3
1772043048.128065,386586,0.04,0.01,0.06,33.56,68.75,251.44,2.56,3.56,1.00,0.00,0.01,0.10,3.37,84.06,110.12,0.94,-0.56,-0.44,5,3
1772043048.319714,386778,0.12,0.00,0.09,35.06,68.25,251.69,-6.50,-2.12,1.44,-0.05,0.08,0.14,3.19,84.19,110.31,-0.25,0.94,-0.44,5,2
1772043048.510604,386968,-0.15,0.28,0.01,42.13,68.75,254.19,-40.38,-2.00,3.69,-0.01,0.06,0.13,3.00,84.31,110.69,-1.94,0.69,-1.75,5,2
1772043048.701639,387159,-0.15,0.05,-0.03,42.31,69.81,255.69,23.56,-13.56,-2.44,-0.02,0.05,0.16,3.06,84.19,110.69,-0.88,-0.94,2.06,5,2
1772043048.890960,387349,0.03,-0.19,0.05,39.81,70.69,253.94,0.50,0.75,-2.75,0.00,0.02,0.04,3.50,83.87,110.31,0.06,-0.81,1.25,6,3
1772043049.080403,387538,-0.18,-0.01,0.00,41.38,71.12,254.44,-5.62,-3.00,1.69,0.01,0.02,0.04,3.87,83.75,110.50,-4.50,-1.87,2.50,6,2
1772043049.272720,387730,0.00,0.45,-0.02,39.06,71.37,255.50,-1.87,3.87,-10.13,0.00,0.04,-0.03,4.19,83.75,110.37,1.69,-0.69,-0.13,6,1
1772043049.463520,387922,0.13,0.00,0.10,35.25,70.75,255.12,12.06,5.62,4.00,0.03,-0.02,0.12,4.12,83.62,110.12,2.31,-0.13,-0.94,6,1
1772043049.654575,388112,-0.04,-0.14,0.02,33.25,69.94,252.94,11.31,2.62,2.06,0.02,0.02,0.09,4.06,83.62,109.81,1.75,-0.13,-0.56,6,1
1772043049.844243,388302,-0.13,0.11,-0.02,31.56,69.25,251.50,8.50,7.75,3.50,-0.01,-0.02,0.07,3.75,83.75,109.62,2.75,-0.81,-2.00,6,1
1772043050.034117,388492,-0.17,-0.21,0.04,32.13,68.50,250.06,0.44,-1.06,3.62,-0.03,0.08,0.03,3.44,83.87,109.87,-0.13,0.13,-0.75,5,1
1772043050.226149,388684,-0.01,-0.10,0.10,32.94,68.31,249.87,-0.81,-0.88,-0.19,0.00,0.01,0.15,3.44,83.81,109.87,1.00,1.44,0.69,5,1
1772043050.417201,388875,-0.13,-0.18,0.00,35.38,68.75,250.37,-13.75,-4.31,-0.94,0.03,0.00,-0.03,3.44,84.00,110.06,0.62,1.37,1.69,5,1
1772043050.608087,389066,-0.05,0.15,0.00,35.13,69.19,252.75,-7.62,0.50,-7.06,0.01,0.02,0.09,3.81,83.62,109.87,-3.81,-0.94,1.37,7,4
1772043050.797409,389255,0.37,0.25,0.19,33.25,68.81,254.94,-6.75,7.50,-4.00,0.03,0.03,0.21,3.75,83.75,110.50,0.37,-0.50,-1.56,7,4
1772043050.986883,389445,-0.08,0.17,-0.01,32.69,68.81,255.19,4.62,0.62,3.37,0.03,0.00,-0.01,3.62,83.94,110.44,1.37,-0.19,-1.25,7,3
1772043051.178579,389636,0.16,-0.15,0.20,30.44,67.94,252.75,18.19,1.75,5.25,-0.02,-0.01,0.06,3.37,84.00,110.37,2.56,-0.31,-1.37,8,3
1772043051.369995,389828,-0.05,-0.17,0.07,31.44,67.37,250.69,-1.44,1.31,1.87,0.01,0.03,0.01,3.06,84.06,110.56,0.56,1.50,-2.06,7,3
1772043051.561681,390020,0.02,-0.04,0.08,32.19,67.19,250.44,1.50,-1.56,2.25,-0.01,-0.01,0.06,2.81,84.06,110.56,0.81,1.37,-0.25,7,3
1772043051.751082,390209,0.07,-0.12,0.04,32.56,67.06,250.19,-0.81,1.81,0.31,-0.02,0.02,0.07,2.69,84.00,110.69,0.19,-0.31,-0.56,7,3
1772043051.940660,390398,0.02,-0.35,0.22,33.81,67.00,250.50,-12.25,-1.94,1.81,-0.03,0.01,0.11,2.75,84.00,110.94,-2.69,1.00,-0.37,7,3
1772043052.132936,390591,-0.06,0.32,-0.01,38.19,67.75,253.44,-16.19,-4.19,-4.00,0.02,0.02,0.14,2.87,84.06,111.12,-4.19,-0.75,1.25,7,3
1772043052.323954,390782,0.00,0.10,-0.05,39.25,68.87,254.69,-0.81,-5.19,-4.25,-0.02,-0.01,0.11,3.31,83.87,110.87,1.81,0.69,3.00,8,5
1772043052.515911,390974,-0.10,0.17,-0.15,38.88,70.06,255.00,4.44,-2.44,-3.62,0.07,-0.01,0.06,3.62,83.75,110.50,1.00,1.00,0.00,7,4
1772043052.706606,391165,-0.16,0.28,-0.08,36.06,70.06,254.56,10.88,6.31,0.88,0.02,0.02,0.08,3.62,83.75,110.31,1.19,0.62,-0.50,6,3
1772043052.897549,391356,0.21,-0.15,0.17,32.38,68.62,252.37,13.06,4.75,4.50,-0.04,0.00,0.09,3.50,83.87,110.12,1.56,-1.56,-1.06,5,3
1772043053.087630,391546,0.11,-0.01,0.15,32.38,67.81,251.00,-2.19,1.06,1.62,0.03,0.06,0.04,3.12,84.00,110.37,2.00,3.69,-1.81,5,3
1772043053.278411,391736,0.03,-0.38,0.26,34.50,67.69,250.69,-8.88,-8.81,3.50,0.01,-0.06,0.09,2.94,83.81,110.56,1.31,-0.25,-2.31,5,4
1772043053.471269,391929,-0.07,0.20,-0.19,41.44,68.75,252.75,-17.62,-1.94,-1.75,-0.03,0.04,0.16,2.69,84.00,111.06,-0.31,1.19,-0.13,5,4
1772043053.663581,392121,-0.13,-0.13,-0.25,42.31,69.50,254.19,3.06,-1.56,-5.19,-0.05,-0.01,0.13,2.87,83.81,110.75,0.13,-0.69,0.31,5,4
1772043053.854698,392313,0.09,0.09,0.06,39.88,70.06,255.19,-1.44,0.50,-1.25,-0.01,0.02,0.04,3.19,83.87,110.75,-1.12,-0.37,1.87,6,4
1772043054.045655,392503,-0.04,0.11,-0.09,39.63,70.31,255.37,-0.56,-1.31,-0.56,0.00,0.00,0.06,3.31,83.87,110.62,0.00,-0.13,-0.13,5,4
1772043054.235001,392693,0.07,0.22,-0.12,38.13,69.94,255.00,10.50,6.25,2.25,-0.03,0.02,0.01,3.25,83.94,110.69,1.75,-0.81,-0.75,4,2
1772043054.426263,392885,0.16,-0.28,0.18,33.06,68.69,252.06,22.50,6.37,6.56,0.00,0.00,0.10,3.06,83.94,110.37,2.69,-1.06,0.31,3,2
1772043054.617524,393075,0.06,-0.15,0.14,33.94,67.81,250.00,-2.94,-1.62,-0.88,-0.07,0.10,0.18,2.69,83.87,110.56,2.56,4.00,-2.87,2,3
1772043054.808352,393266,-0.13,-0.39,0.07,36.38,68.06,249.81,0.06,-4.19,4.81,0.01,-0.01,0.05,2.37,84.00,110.94,-4.31,-0.13,-0.88,3,4
1772043054.997917,393456,0.04,-0.09,-0.02,40.69,68.44,251.75,-27.12,-4.06,-1.62,0.02,-0.14,0.06,2.44,84.12,111.00,-3.06,-4.75,0.69,3,5
1772043055.188070,393646,0.29,0.55,0.07,41.50,68.87,255.94,-7.75,9.69,-4.37,0.00,0.01,0.22,2.56,84.31,111.25,-0.06,0.62,1.00,4,4
1772043055.379739,393838,-0.03,0.06,-0.09,40.38,69.12,255.69,9.88,-3.44,1.44,0.15,-0.10,0.07,2.94,84.37,111.12,-0.19,-0.88,1.62,5,4
1772043055.570450,394029,0.00,0.15,0.04,39.88,69.31,255.12,0.88,-2.75,-2.87,0.04,-0.02,-0.02,3.00,84.19,110.81,0.94,-0.62,0.44,4,4
1772043055.761405,394219,0.04,0.16,-0.03,38.75,69.62,254.69,7.94,-0.37,-0.50,-0.12,0.04,0.09,3.12,84.12,110.56,2.37,0.69,-0.06,4,4
1772043055.950723,394409,0.02,-0.14,0.08,37.25,69.56,253.12,7.94,-0.81,2.44,0.00,0.00,0.03,3.06,84.12,110.31,1.44,-0.06,-0.69,5,4
1772043056.141405,394600,-0.04,-0.02,0.02,37.44,69.37,252.44,1.94,0.88,0.19,-0.02,0.01,0.10,3.00,84.19,110.19,0.19,-0.62,0.56,5,4
1772043056.333006,394791,0.00,-0.01,-0.05,36.56,69.19,252.31,0.81,1.81,-0.25,-0.05,0.00,0.06,3.06,84.12,110.25,-1.37,0.13,-0.25,5,4
1772043056.523392,394982,0.04,0.11,0.02,35.00,68.75,252.12,5.94,3.19,0.69,-0.01,0.04,0.02,3.06,84.06,110.19,0.62,0.31,-0.25,5,3
1772043056.714240,395172,0.08,-0.03,0.15,32.69,68.00,251.06,8.19,4.12,0.06,0.02,-0.05,0.07,3.00,84.00,110.06,1.75,0.88,-1.00,5,2
1772043056.904466,395362,-0.04,-0.03,0.06,32.44,67.69,250.56,-1.00,0.37,0.94,-0.18,0.35,-0.47,2.50,84.75,110.94,-7.31,-12.00,-4.06,5,2
1772043057.094433,395553,-0.04,-0.26,0.05,33.69,67.31,249.94,5.56,-6.00,4.00,0.06,-0.06,0.08,2.62,84.25,110.50,1.19,0.37,0.19,4,2
1772043057.285851,395744,0.16,0.12,0.06,34.06,67.75,249.81,-2.81,1.19,-0.75,0.00,-0.04,0.19,2.62,83.87,110.37,2.25,2.00,-0.69,5,2
1772043057.478157,395935,0.00,-0.11,0.09,35.31,68.31,249.94,-4.87,-3.62,-1.50,0.00,-0.06,-0.05,2.56,83.94,110.31,-1.44,-0.25,-1.87,5,2
1772043057.667737,396126,0.15,-0.02,0.00,37.50,68.69,251.06,-7.81,-3.12,0.69,-0.02,-0.05,0.12,2.37,83.81,110.56,-0.62,-2.25,-0.75,5,2
1772043057.857093,396315,-0.07,-0.12,-0.06,41.00,69.25,251.94,-12.63,-1.75,-1.50,0.01,0.02,0.04,2.37,84.19,111.12,-0.94,-2.12,0.19,5,1
1772043058.047625,396506,-0.09,0.13,-0.10,40.00,69.50,253.12,6.81,2.12,0.19,0.00,-0.04,0.05,2.50,84.06,110.87,-0.25,-0.94,0.88,6,2
1772043058.239011,396697,-0.09,0.12,-0.18,35.75,68.62,252.19,14.63,12.69,-3.25,-0.06,-0.02,0.09,2.69,84.06,110.56,2.37,1.00,1.50,6,2
1772043058.430051,396888,0.04,-0.16,0.20,31.00,67.69,250.81,6.87,-0.94,2.06,0.01,-0.02,-0.08,2.75,84.19,110.31,0.75,0.69,-0.13,7,2
1772043058.620738,397079,0.04,-0.06,0.07,31.69,67.44,250.31,-2.25,-1.69,1.19,0.01,-0.04,0.15,2.69,84.06,110.37,-0.75,-4.31,-0.19,7,2
1772043058.809767,397268,0.16,0.06,0.14,32.88,67.62,250.75,-4.81,-0.75,-0.13,0.02,0.00,0.00,2.87,83.94,109.75,5.06,2.62,1.69,8,3
1772043058.999787,397457,-0.07,-0.08,-0.03,34.44,68.31,250.81,-1.62,-8.13,0.25,-0.01,-0.11,0.04,2.94,83.75,109.62,-2.19,-2.44,-1.44,8,3
1772043059.191923,397650,-0.07,0.18,-0.07,37.19,69.12,251.37,-8.94,-2.69,1.62,-0.03,-0.02,0.22,2.81,83.75,109.94,3.44,2.69,-0.44,7,3
1772043059.382817,397841,-0.01,-0.14,-0.07,39.00,69.37,251.56,-1.87,-2.69,1.19,0.00,0.00,0.10,2.81,83.75,110.12,-0.62,-0.44,0.50,7,3
1772043059.573847,398032,-0.04,0.08,-0.06,39.38,69.75,252.25,-1.06,1.50,-2.37,-0.02,0.06,-0.04,2.75,83.94,110.31,-0.06,-2.44,-1.31,7,5
1772043059.764090,398222,0.11,-0.16,0.07,37.69,69.19,252.44,2.87,3.87,0.25,0.05,-0.03,0.02,2.75,84.00,110.12,0.06,-0.25,-0.19,8,5
1772043059.954493,398413,0.01,0.14,0.09,36.38,68.94,252.69,1.00,1.50,-0.50,-0.01,0.03,0.02,2.75,84.12,110.19,1.19,0.25,0.06,8,5
1772043060.145778,398604,-0.01,-0.04,0.00,36.00,68.75,252.31,1.56,-0.31,0.44,-0.01,-0.02,0.03,2.75,84.12,110.06,0.31,-0.88,-0.06,8,5
1772043060.336228,398794,-0.05,0.00,0.00,35.69,68.62,252.31,0.62,2.31,-0.94,-0.01,0.00,0.09,2.75,84.19,110.06,-0.75,-0.19,-0.19,8,5
1772043060.526509,398985,0.00,0.00,0.08,35.38,68.50,252.37,0.13,-1.00,0.31,-0.01,-0.03,0.11,2.81,84.12,110.00,-0.69,0.06,0.00,8,5
1772043060.717076,399175,0.06,0.07,0.04,35.56,68.75,252.50,-0.19,0.94,-2.56,0.00,0.00,0.05,2.87,84.19,110.00,-0.50,-0.44,0.19,7,4
1772043060.907749,399366,-0.06,0.03,0.00,35.13,68.62,252.50,1.25,1.81,0.31,-0.01,-0.02,0.05,2.87,84.19,110.06,0.81,-0.13,-0.50,6,3
1772043061.098549,399557,0.16,-0.03,0.10,32.63,67.87,251.81,12.00,4.50,0.56,0.00,-0.04,0.07,2.87,84.19,109.87,1.25,-1.37,0.19,7,3
1772043061.289219,399747,0.01,0.06,0.13,31.87,67.56,251.00,-0.44,1.75,1.06,-0.01,-0.02,0.01,2.69,84.31,110.06,-0.56,0.00,-2.31,7,3
1772043061.479966,399938,0.03,0.00,0.02,32.38,67.37,250.37,4.37,-0.06,3.75,-0.02,-0.02,0.01,2.50,84.19,110.19,-0.19,-2.06,-0.06,7,2
1772043061.670203,400129,0.05,0.02,0.13,32.25,67.12,249.94,-1.56,1.94,-0.88,0.01,-0.05,0.13,2.50,84.19,110.19,-0.44,1.19,0.06,6,1
1772043061.860960,400319,0.00,0.00,0.00,32.38,67.25,250.00,-0.13,-0.81,0.25,-0.03,-0.06,0.04,2.50,84.12,110.19,0.25,0.81,1.06,6,1
1772043062.051854,400510,0.04,-0.15,0.12,33.88,67.75,250.56,-13.25,-6.37,-0.06,0.02,-0.03,-0.06,2.50,84.12,110.37,-2.62,0.56,-1.37,5,1
1772043062.242479,400700,0.05,0.11,-0.02,36.13,68.12,252.19,-2.94,-1.69,-1.06,0.03,-0.06,0.05,2.44,84.12,110.50,-1.62,-2.44,0.19,6,1
1772043062.433002,400891,0.04,0.16,-0.04,36.31,68.44,252.62,-2.50,0.50,-2.19,-0.01,-0.02,0.11,2.50,84.25,110.62,1.94,-0.94,0.62,6,2
1772043062.623760,401082,-0.10,0.04,-0.08,35.25,68.37,252.50,3.37,4.81,1.00,-0.01,-0.08,0.08,2.56,84.37,110.44,-1.12,-0.94,-0.19,6,1
1772043062.812980,401271,0.08,0.18,-0.01,31.94,67.50,251.94,13.69,7.94,-3.06,0.00,-0.01,0.12,2.56,84.44,110.44,2.06,-0.69,0.25,7,2
1772043063.004553,401463,0.08,-0.27,0.20,27.94,66.62,250.31,7.56,3.62,3.31,0.02,-0.09,0.07,2.50,84.56,110.25,0.81,0.37,-0.88,6,2
1772043063.195541,401654,0.00,0.10,0.10,28.44,66.12,249.94,-2.12,-0.94,-0.37,-0.02,-0.03,0.01,2.31,84.81,110.50,-0.44,0.00,-0.88,6,2
1772043063.386137,401844,0.15,-0.23,0.22,32.44,66.50,250.44,-25.50,-10.63,7.00,0.01,-0.06,0.03,2.25,84.81,110.44,-0.37,0.13,-0.69,5,2
1772043063.576933,402035,0.00,0.07,-0.06,36.63,67.37,251.87,-1.81,-2.94,-1.87,0.00,-0.06,0.12,2.37,84.69,110.50,-1.87,0.00,0.88,6,2
1772043063.767279,402226,0.11,0.07,-0.03,36.38,68.00,252.37,0.06,0.19,-2.06,0.00,-0.09,0.07,2.37,84.62,110.62,0.44,-0.06,-0.06,6,2
1772043063.958154,402416,-0.12,0.11,-0.10,36.13,68.19,252.19,4.06,1.37,0.62,0.01,-0.09,0.06,2.37,84.75,110.56,0.69,-1.31,0.19,6,2
1772043064.148396,402607,0.07,0.06,0.08,33.50,67.75,251.62,9.13,5.94,0.88,0.01,-0.08,0.14,2.37,84.81,110.44,1.25,0.56,-0.75,6,3
1772043064.339063,402797,0.00,-0.06,0.04,32.19,66.94,250.50,2.44,3.06,1.56,0.00,-0.07,0.08,2.19,85.00,110.50,0.56,-0.81,-0.31,6,2
1772043064.530024,402988,0.03,0.02,0.10,31.37,66.50,250.37,0.88,3.44,-0.56,-0.01,-0.04,0.06,2.19,85.12,110.44,-0.50,-0.62,0.25,6,2
1772043064.719493,403178,0.06,0.00,0.20,31.37,66.50,250.56,-2.25,-1.94,-1.06,-0.08,-0.02,0.00,2.19,85.12,110.44,0.19,0.94,0.37,7,3
1772043064.911147,403369,0.00,0.05,0.08,32.81,67.25,251.25,-6.12,-5.87,-1.50,0.00,-0.04,0.04,2.37,84.87,110.37,-0.88,1.37,1.19,7,3
1772043065.101740,403560,-0.16,0.25,-0.29,33.56,68.12,251.87,1.87,0.56,-1.37,-0.04,-0.12,0.17,2.56,84.62,110.25,-0.25,1.06,0.50,7,3
1772043065.292245,403751,0.07,0.02,-0.02,31.06,67.50,251.25,4.87,6.37,1.69,0.04,-0.12,0.06,2.62,84.37,110.12,-0.06,-1.50,-0.44,7,3
1772043065.482134,403941,0.07,0.05,0.18,29.94,66.50,250.81,0.06,4.44,-0.31,0.00,-0.06,0.05,2.37,84.81,110.69,1.75,0.81,-2.50,6,2
1772043065.672213,404131,0.05,-0.22,0.31,29.87,66.00,250.25,2.37,-1.31,2.62,0.02,-0.08,0.00,2.12,84.94,110.81,0.00,0.31,-1.87,5,2
1772043065.864163,404322,0.01,0.20,0.04,33.63,66.37,250.69,-17.25,-10.25,1.56,-0.03,-0.06,0.02,1.94,84.75,111.00,1.37,1.37,-0.06,5,2
1772043066.055084,404513,-0.03,-0.09,-0.12,36.63,67.56,251.19,-1.69,-3.44,0.25,-0.02,-0.04,0.15,2.06,84.50,111.12,-0.56,0.75,2.12,6,2
1772043066.245627,404704,-0.04,0.10,-0.17,36.75,68.12,251.56,0.44,-2.31,-2.12,-0.03,-0.08,0.05,2.44,84.25,110.69,-0.69,-1.12,0.94,5,2
1772043066.435591,404894,-0.03,0.16,-0.04,35.88,68.12,251.75,1.12,2.94,-1.44,0.02,-0.05,0.07,2.50,84.44,110.62,-0.31,-3.19,0.50,6,3
1772043066.625299,405084,-0.04,0.13,0.28,33.56,67.50,251.75,6.00,6.25,3.44,-0.14,0.07,-0.13,2.56,84.69,110.50,1.81,4.50,2.06,5,2
1772043066.817291,405276,0.16,-0.22,0.10,31.44,66.69,250.31,5.00,-1.12,-1.12,-0.03,-0.09,0.12,2.81,84.31,110.12,-2.12,1.12,1.75,6,2
1772043067.007942,405466,0.08,0.07,-0.10,31.19,67.37,250.94,-2.62,-3.94,-4.25,-0.02,-0.07,0.12,3.25,83.87,109.94,-0.75,0.19,1.37,6,2
1772043067.199089,405657,-0.01,-0.02,-0.06,32.44,68.37,252.06,-12.38,-5.44,-2.25,-0.05,0.06,-0.07,3.44,83.94,110.12,1.06,-0.62,-0.06,7,2
1772043067.389601,405848,0.06,0.06,0.09,32.56,68.87,253.56,1.75,-1.19,-0.13,0.00,0.05,-0.08,3.44,83.94,110.06,-0.50,0.37,0.88,7,2
1772043067.579801,406038,-0.05,-0.03,-0.04,32.75,69.06,253.37,-0.25,-3.69,-0.94,0.02,-0.03,0.07,3.56,83.69,109.94,-0.31,1.31,0.25,7,2
1772043067.771108,406229,-0.03,0.04,-0.16,33.06,69.31,253.44,0.69,-0.88,-0.06,0.01,-0.07,0.13,3.69,83.50,109.94,0.37,-0.62,-0.25,6,2
1772043067.961216,406420,0.02,0.03,-0.02,32.50,69.12,253.25,2.69,3.12,1.69,-0.01,-0.07,0.02,3.56,83.62,109.94,0.94,-0.75,-1.37,6,2
1772043068.151833,406610,-0.04,0.24,-0.01,31.69,68.31,252.69,5.19,8.50,0.62,-0.01,-0.03,0.08,3.25,83.94,110.12,1.00,0.62,-1.62,5,2
1772043068.341987,406800,0.06,-0.11,0.23,29.75,67.06,251.31,5.62,3.44,4.31,0.01,-0.02,0.00,2.87,84.19,110.44,0.56,0.25,-2.69,5,2
1772043068.534305,406992,-0.01,-0.07,0.09,30.69,66.62,250.56,-0.75,-2.25,1.75,-0.01,-0.04,0.00,2.56,84.25,110.75,0.44,0.56,-1.25,5,2
1772043068.724224,407182,0.02,0.00,-0.07,31.94,66.87,250.56,-1.44,-2.31,0.75,-0.01,-0.03,0.16,2.37,84.25,110.87,0.81,0.50,-0.50,5,2
1772043068.915224,407373,-0.02,-0.12,-0.02,32.88,67.06,250.37,-0.75,-0.88,-0.50,-0.01,-0.02,0.05,2.37,84.37,110.87,-0.62,-0.13,-0.13,5,2
1772043069.105572,407564,-0.06,-0.01,0.04,32.44,67.12,250.75,0.13,-0.19,-0.69,-0.01,-0.04,0.07,2.50,84.37,110.87,-0.81,-0.44,1.31,5,2
1772043069.295773,407754,0.05,0.05,0.04,31.94,67.31,251.12,-0.94,-0.13,-1.25,-0.04,-0.07,-0.02,2.56,84.37,110.87,-2.00,-3.50,-0.88,6,2
1772043069.485787,407944,0.02,-0.19,0.19,32.25,67.56,251.37,-5.44,-4.37,1.00,-0.04,-0.27,0.09,2.87,84.06,110.19,-1.81,-0.19,0.88,5,2
1772043069.677396,408136,0.03,0.35,-0.11,35.69,68.19,253.06,-6.81,-1.12,-2.19,0.03,-0.01,0.11,2.56,84.50,110.87,-2.00,-1.56,-1.56,6,2
1772043069.867430,408326,0.03,0.02,-0.01,35.81,68.25,253.31,1.75,1.00,-0.44,0.02,-0.06,0.11,2.56,84.44,110.94,1.06,0.50,1.06,6,2
1772043070.058326,408516,-0.03,0.01,0.00,34.88,68.25,253.31,0.56,2.81,-1.37,-0.02,-0.03,0.07,2.69,84.44,110.94,-1.56,-1.62,-0.13,5,2
1772043070.249117,408707,-0.08,0.43,-0.10,33.13,67.94,253.44,7.06,3.94,0.50,0.01,-0.03,0.11,2.69,84.44,110.87,0.69,0.62,-0.19,7,2
1772043070.439539,408898,-0.03,-0.31,0.11,29.69,67.19,251.56,8.19,-0.31,1.94,-0.04,-0.05,-0.02,2.75,84.56,110.75,0.06,-2.00,-1.12,7,3
1772043070.630310,409089,0.07,0.02,0.10,29.25,66.81,251.50,0.13,-0.19,0.81,0.02,0.02,-0.02,2.62,84.69,110.81,0.13,0.37,-0.25,7,3
1772043070.820589,409279,0.00,-0.02,0.05,29.69,66.81,251.25,0.56,-2.19,0.25,-0.01,-0.03,0.06,2.62,84.62,110.75,0.00,0.31,0.88,7,2
1772043071.011296,409470,0.06,-0.06,0.04,30.00,67.19,251.44,-3.00,-3.31,-1.75,-0.01,-0.02,0.07,2.87,84.50,110.56,0.19,0.69,1.12,7,2
1772043071.201887,409660,-0.21,0.26,-0.10,34.31,67.94,252.94,-11.88,-2.94,-1.75,0.05,-0.02,0.02,2.94,84.44,110.62,1.75,2.87,0.94,7,2
1772043071.393017,409851,-0.04,0.03,0.01,33.81,68.31,253.75,1.75,-0.75,-2.94,0.00,-0.04,0.09,3.12,84.25,110.50,-0.50,-0.75,0.37,7,3
1772043071.583751,410042,-0.17,0.14,-0.27,33.06,68.31,253.94,2.12,2.25,-0.13,-0.02,-0.01,0.11,3.00,84.44,110.75,0.25,0.31,-1.12,7,2
1772043071.773644,410232,0.10,-0.24,0.18,29.06,67.44,252.37,13.69,2.44,2.94,-0.01,-0.10,0.00,3.00,84.50,110.62,1.50,-2.06,-0.56,7,2
1772043071.964264,410423,0.13,0.05,0.19,29.37,66.94,251.87,-4.44,-0.19,0.62,-0.01,-0.01,0.03,2.62,84.69,111.06,-0.56,0.62,-2.31,6,2
1772043072.155336,410614,-0.19,0.10,-0.01,34.00,67.44,252.25,-9.56,-8.63,5.44,-0.05,-0.06,0.06,2.37,84.75,111.31,0.62,1.06,-0.56,4,1
1772043072.345889,410804,0.02,-0.04,-0.06,35.69,67.87,252.31,-0.62,-0.25,1.19,-0.03,-0.07,0.22,2.31,84.69,111.44,0.50,0.62,0.31,4,1
1772043072.537007,410995,-0.07,0.07,-0.17,35.88,68.06,252.25,1.94,0.62,-0.44,0.00,-0.08,0.11,2.37,84.62,111.37,-0.25,-1.31,-0.06,4,1
1772043072.727553,411185,0.07,0.20,0.02,33.00,67.69,251.75,15.88,5.94,-1.62,-0.01,-0.08,0.12,2.37,84.81,111.12,1.31,-1.81,0.50,5,3
1772043072.917987,411376,-0.07,-0.05,0.10,31.25,67.06,250.31,0.06,0.37,0.37,-0.02,-0.06,-0.05,2.25,85.12,111.12,1.06,-1.75,-2.12,5,3
1772043073.108469,411567,0.09,-0.09,0.15,30.81,66.87,250.31,1.50,0.88,1.62,0.03,-0.06,0.05,2.06,85.19,111.37,-4.19,1.25,-2.44,6,3
1772043073.299236,411757,-0.03,-0.06,0.15,33.06,67.00,250.56,-13.06,-7.87,4.50,-0.02,0.00,-0.02,1.75,85.19,112.06,-1.50,0.69,-0.06,6,2
1772043073.490034,411948,-0.03,0.02,-0.04,35.94,67.75,251.31,-1.00,-5.06,-3.75,0.00,-0.03,0.07,2.19,84.94,111.62,1.50,1.31,3.50,7,3
1772043073.680193,412138,0.00,0.01,-0.13,36.44,68.62,252.19,-8.50,-3.69,-2.69,-0.05,-0.08,0.08,2.56,84.62,111.19,-0.31,0.25,-0.37,7,3
1772043073.870513,412329,-0.07,0.12,-0.11,37.00,69.06,253.37,-1.69,2.62,-1.81,0.00,-0.03,0.07,2.56,84.69,111.31,-0.31,-0.88,-0.44,7,3
