host_time_s,t_ms,ax1,ay1,az1,roll1,pitch1,yaw1,gx1,gy1,gz1,ax2,ay2,az2,roll2,pitch2,yaw2,gx2,gy2,gz2,emg1,emg2
1772652235.104286,701020,0.03,0.03,-0.18,-176.44,-86.25,0.13,0.81,2.19,2.00,0.03,-0.05,0.04,-8.81,-67.31,8.19,-1.19,-0.56,-1.69,4,3
1772652235.104578,701060,0.05,0.03,-0.17,-176.37,-86.19,0.00,-0.56,-0.19,2.06,0.05,-0.10,-0.02,-8.63,-67.31,8.19,-1.19,-0.19,-1.50,3,3
1772652235.104850,701101,0.06,0.03,-0.16,-176.25,-86.06,359.87,-1.62,1.19,2.75,0.04,-0.07,0.10,-8.38,-67.31,8.25,-2.12,-0.50,-1.06,3,3
1772652235.105139,701140,0.14,0.03,-0.10,-176.19,-86.00,359.69,-2.87,0.56,2.37,0.05,-0.06,-0.01,-8.25,-67.31,8.19,-2.12,0.00,-0.37,3,3
1772652235.105412,701180,0.06,0.07,-0.09,-176.06,-85.87,359.50,-4.06,-1.00,2.62,0.01,-0.06,-0.04,-8.19,-67.31,8.19,-0.44,0.81,-0.19,3,4
1772652235.105691,701221,0.08,0.07,-0.02,-175.94,-85.81,359.25,-3.31,-2.81,2.19,0.02,-0.09,-0.01,-8.19,-67.37,8.19,-0.19,0.75,0.00,3,4
1772652235.105958,701261,0.00,0.03,0.01,-175.87,-85.75,359.00,-3.00,-4.12,2.50,0.04,-0.08,-0.12,-8.19,-67.37,8.19,0.50,0.37,-0.44,3,4
1772652235.106231,701301,-0.17,0.07,0.14,-175.75,-85.69,358.81,-3.00,-2.81,2.37,0.05,-0.09,-0.04,-8.13,-67.37,8.19,0.50,0.06,-0.19,3,4
1772652235.106500,701341,-0.01,0.05,0.05,-175.69,-85.62,358.62,-3.12,-1.06,1.31,0.05,-0.07,-0.03,-8.13,-67.37,8.19,-0.13,0.06,0.37,3,4
1772652235.106764,701381,0.02,0.09,0.00,-175.62,-85.56,358.44,-3.19,-1.19,0.44,0.01,-0.06,-0.10,-8.19,-67.37,8.19,0.13,-0.44,0.88,3,4
1772652235.107025,701422,0.00,0.19,0.03,-175.62,-85.56,358.31,-2.06,-1.44,0.00,0.00,0.02,-0.06,-8.25,-67.37,8.13,0.56,-0.69,0.75,2,3
1772652235.107291,701462,-0.05,0.06,0.03,-175.62,-85.56,358.25,0.13,-1.50,-1.06,0.06,0.00,-0.01,-8.31,-67.37,8.13,0.19,-0.69,0.44,3,3
1772652235.107554,701502,-0.06,0.01,0.04,-175.62,-85.62,358.31,1.19,0.81,-1.00,0.07,0.00,-0.03,-8.31,-67.31,8.13,0.75,0.00,0.13,3,3
1772652235.107820,701542,-0.04,-0.02,0.03,-175.69,-85.69,358.44,1.62,1.62,-0.94,0.02,-0.03,-0.05,-8.31,-67.31,8.19,1.06,0.37,0.06,3,3
1772652235.108092,701582,-0.10,-0.04,0.02,-175.75,-85.69,358.50,1.56,3.37,-0.62,0.01,-0.04,-0.02,-8.38,-67.31,8.19,0.56,-0.44,0.25,3,3
1772652235.108368,701623,0.06,-0.05,-0.03,-175.75,-85.69,358.56,0.88,2.87,-0.94,0.02,-0.03,-0.05,-8.38,-67.31,8.19,-0.13,-0.44,0.19,2,3
1772652235.108640,701663,0.02,-0.08,-0.07,-175.81,-85.69,358.62,0.19,1.50,-1.06,0.02,-0.02,-0.03,-8.38,-67.31,8.19,-0.19,-0.62,0.13,2,3
1772652235.108920,701703,0.04,-0.04,-0.05,-175.81,-85.69,358.62,-0.88,1.00,0.00,0.05,-0.02,-0.08,-8.38,-67.31,8.19,-0.25,-0.56,0.25,2,3
1772652235.109197,701743,-0.02,0.00,-0.02,-175.81,-85.69,358.62,-0.94,1.25,0.56,0.07,-0.01,0.00,-8.38,-67.31,8.19,-0.31,-0.44,0.00,2,3
1772652235.109485,701783,0.04,0.00,-0.06,-175.81,-85.69,358.56,-0.94,2.19,0.56,0.05,-0.02,0.00,-8.38,-67.31,8.19,-0.31,0.44,-0.13,3,3
1772652235.109769,701824,0.02,-0.01,-0.04,-175.81,-85.62,358.50,-1.00,1.62,0.19,0.03,0.00,-0.04,-8.38,-67.31,8.19,-0.19,0.06,-0.31,2,3
1772652235.110054,701864,-0.01,0.07,-0.05,-175.81,-85.62,358.44,-1.19,1.06,0.37,0.02,-0.02,-0.02,-8.38,-67.31,8.19,-0.06,0.19,0.25,2,3
1772652235.110339,701904,-0.01,-0.05,-0.03,-175.81,-85.62,358.44,-0.62,1.19,-0.31,0.03,-0.04,-0.04,-8.38,-67.31,8.19,-0.19,0.25,-0.31,3,4
1772652235.110613,701944,0.08,0.00,-0.02,-175.81,-85.62,358.37,-1.62,1.87,0.44,0.08,-0.09,0.00,-8.38,-67.31,8.19,-0.25,-0.37,0.00,3,4
1772652235.110881,701984,0.01,0.04,0.00,-175.81,-85.56,358.31,-1.69,1.81,0.19,0.04,-0.06,0.00,-8.38,-67.31,8.19,-0.37,-0.13,0.13,3,4
1772652235.111144,702025,0.05,0.06,-0.02,-175.81,-85.56,358.19,-2.00,1.06,0.19,0.04,-0.03,0.01,-8.38,-67.31,8.19,-0.50,0.00,0.50,3,4
1772652235.111414,702065,0.01,0.07,0.00,-175.81,-85.56,358.12,-1.56,0.00,-0.62,0.02,-0.04,-0.01,-8.38,-67.31,8.19,0.00,0.37,0.19,2,3
1772652235.111697,702105,0.01,0.07,-0.04,-175.81,-85.62,358.12,-1.00,0.31,-1.56,0.04,-0.04,0.00,-8.38,-67.31,8.19,-0.19,-0.06,0.25,2,3
1772652235.111975,702145,-0.03,0.02,-0.01,-175.87,-85.69,358.19,-0.13,0.56,-1.75,0.04,-0.05,-0.02,-8.38,-67.31,8.19,0.31,0.44,0.06,2,3
1772652235.112242,702185,0.01,0.03,0.00,-175.94,-85.75,358.25,0.00,0.50,-1.31,0.03,-0.03,-0.04,-8.38,-67.31,8.19,1.19,0.88,-0.19,2,3
1772652235.112547,702226,-0.02,0.04,0.00,-176.00,-85.81,358.31,1.00,0.37,-1.50,0.05,-0.03,-0.02,-8.44,-67.37,8.25,0.62,0.25,-0.06,2,3
1772652235.112815,702266,-0.03,0.02,-0.01,-176.06,-85.81,358.37,1.12,1.00,-1.44,0.05,-0.05,0.00,-8.44,-67.37,8.25,0.19,0.19,0.13,2,3
1772652235.113090,702306,0.01,0.02,-0.05,-176.12,-85.87,358.50,0.56,0.62,-1.31,0.03,-0.03,-0.07,-8.44,-67.37,8.25,0.31,0.37,0.00,2,2
1772652235.113360,702346,-0.03,0.01,-0.03,-176.19,-85.94,358.50,0.25,0.69,-1.12,0.01,-0.03,-0.02,-8.44,-67.37,8.25,0.13,-0.25,-0.19,1,3
1772652235.113640,702386,0.00,0.00,-0.01,-176.19,-85.94,358.56,0.13,0.50,-0.88,0.04,-0.04,-0.03,-8.44,-67.37,8.25,-0.50,-0.37,0.19,1,4
1772652235.113920,702427,-0.02,0.00,-0.03,-176.25,-85.94,358.56,-0.69,0.56,-0.19,0.04,-0.03,-0.05,-8.44,-67.37,8.25,-0.19,0.50,0.06,1,4
1772652235.114189,702467,0.04,0.05,-0.02,-176.25,-85.94,358.56,-1.06,0.75,-0.25,0.06,-0.04,-0.06,-8.44,-67.37,8.25,0.62,0.81,0.00,1,4
1772652235.114463,702507,-0.03,0.06,-0.05,-176.25,-85.94,358.50,-0.69,0.81,-0.06,0.01,0.01,-0.02,-8.44,-67.37,8.25,1.00,0.75,-0.19,1,3
1772652235.114734,702547,-0.09,0.10,0.01,-176.25,-85.94,358.50,0.69,0.81,-0.88,0.02,-0.06,-0.08,-8.50,-67.44,8.25,0.50,0.44,-0.06,1,3
1772652235.115010,702587,-0.05,-0.03,0.01,-176.25,-85.94,358.56,1.37,1.37,-0.44,0.04,-0.08,-0.05,-8.50,-67.37,8.25,-0.50,-0.88,-0.50,1,4
1772652235.115281,702627,0.00,-0.05,-0.02,-176.25,-85.94,358.62,0.37,1.75,0.19,0.07,-0.08,0.00,-8.50,-67.37,8.25,-1.19,-1.00,0.06,1,3
1772652235.115565,702667,-0.03,-0.04,-0.06,-176.25,-85.87,358.56,-1.75,1.94,0.88,0.04,-0.08,-0.03,-8.44,-67.31,8.25,-1.06,-0.37,0.50,1,3
1772652235.115835,702707,0.00,0.03,-0.08,-176.19,-85.81,358.44,-3.75,2.44,0.81,0.03,-0.04,-0.01,-8.38,-67.31,8.19,-0.75,0.13,0.69,1,3
1772652235.116097,702747,0.05,0.09,-0.06,-176.19,-85.75,358.25,-4.06,2.69,0.88,0.02,0.00,-0.07,-8.44,-67.31,8.19,0.06,0.44,1.00,1,2
1772652235.116364,702787,0.06,0.14,-0.04,-176.12,-85.69,358.06,-2.50,2.06,0.06,0.02,-0.01,-0.07,-8.50,-67.31,8.19,0.75,-0.06,0.06,1,1
1772652235.116631,702828,0.04,0.08,-0.01,-176.12,-85.69,357.94,-1.00,1.25,-0.88,0.03,-0.03,-0.06,-8.56,-67.31,8.19,1.56,0.06,-0.88,1,1
1772652235.116899,702868,-0.09,0.05,0.01,-176.19,-85.69,358.00,0.62,1.19,-0.50,0.04,-0.06,-0.02,-8.50,-67.31,8.25,-0.31,-1.12,-0.06,1,1
1772652235.117171,702908,-0.04,-0.05,-0.03,-176.19,-85.62,358.00,1.12,2.44,0.13,0.04,-0.05,-0.03,-8.50,-67.31,8.25,-1.00,-0.56,0.13,1,1
1772652235.117458,702948,-0.01,-0.05,-0.03,-176.19,-85.56,358.06,-0.50,2.31,0.62,0.02,-0.06,-0.03,-8.44,-67.31,8.25,-0.25,-0.19,0.31,1,1
1772652235.117720,702988,0.00,0.01,-0.06,-176.12,-85.50,357.94,-2.19,2.81,1.06,0.04,-0.02,-0.04,-8.44,-67.31,8.25,0.56,0.00,0.25,1,1
1772652235.146062,703029,0.08,0.05,-0.05,-176.12,-85.44,357.81,-2.06,2.12,0.62,0.02,-0.04,-0.05,-8.44,-67.31,8.25,0.13,-0.69,0.25,3,1
1772652235.186342,703069,-0.03,0.04,-0.03,-176.06,-85.37,357.75,-1.25,1.81,0.44,0.02,-0.05,-0.05,-8.44,-67.25,8.25,-0.56,-0.88,0.31,3,1
1772652235.226193,703109,0.00,0.03,-0.07,-176.06,-85.31,357.69,-1.12,1.69,0.31,0.02,0.00,0.00,-8.44,-67.25,8.25,-0.25,-0.25,0.25,3,1
1772652235.266546,703149,0.05,0.01,-0.06,-176.06,-85.31,357.62,-0.56,1.94,0.25,0.05,-0.07,-0.03,-8.44,-67.25,8.25,-0.31,-0.81,0.37,3,2
1772652235.306943,703189,-0.09,0.04,-0.02,-176.06,-85.25,357.62,-1.06,1.81,1.12,0.03,-0.03,0.00,-8.44,-67.25,8.25,0.13,-0.37,0.62,3,2
1772652235.346945,703230,-0.12,0.05,0.03,-176.00,-85.19,357.56,-0.75,2.94,0.69,0.02,-0.07,0.00,-8.50,-67.19,8.19,-1.00,-1.37,0.94,3,2
1772652235.387140,703270,-0.31,-0.05,0.10,-176.00,-85.06,357.50,0.75,3.00,1.25,0.07,-0.07,0.13,-8.44,-67.19,8.13,-1.75,-0.69,0.31,3,2
1772652235.427326,703310,-0.09,-0.09,-0.04,-175.94,-84.94,357.44,-0.44,7.75,2.94,0.09,-0.02,0.18,-8.44,-67.19,8.06,-2.62,1.12,1.25,3,3
1772652235.467302,703350,0.13,-0.04,-0.22,-175.81,-84.62,357.19,-4.25,9.75,3.19,0.01,-0.03,-0.02,-8.56,-67.25,7.94,-1.06,2.81,2.37,3,2
1772652235.507523,703390,0.27,0.06,-0.35,-175.69,-84.31,356.81,-7.50,8.19,1.37,0.01,-0.09,-0.05,-8.75,-67.31,7.81,-1.37,-0.13,2.81,4,3
1772652235.547591,703431,0.18,0.14,-0.21,-175.62,-84.06,356.44,-7.56,4.19,1.25,0.05,0.03,0.00,-9.00,-67.25,7.69,0.25,-0.31,2.25,3,3
1772652235.587868,703471,-0.01,0.14,-0.08,-175.50,-83.87,356.06,-6.69,2.81,2.00,0.05,0.06,0.08,-9.19,-67.25,7.69,3.31,0.44,-0.06,3,2
1772652235.628040,703511,0.08,0.26,-0.04,-175.37,-83.69,355.69,-3.44,3.25,1.81,0.03,-0.05,-0.07,-9.25,-67.31,7.81,2.87,0.06,-1.00,3,2
1772652235.668026,703551,0.05,0.10,-0.02,-175.25,-83.56,355.50,0.31,2.00,1.19,0.03,-0.11,-0.08,-9.25,-67.31,7.87,1.00,-0.06,-0.94,4,2
1772652235.708345,703591,0.11,-0.05,0.03,-175.25,-83.44,355.44,1.69,1.12,1.50,0.11,-0.08,-0.19,-9.19,-67.31,7.94,0.50,-0.19,-1.25,4,2
1772652235.748835,703632,0.05,-0.11,0.03,-175.19,-83.44,355.44,1.25,0.56,1.25,0.09,-0.16,-0.21,-9.06,-67.31,8.00,0.25,-0.81,-0.50,4,2
1772652235.788912,703672,0.01,-0.14,0.07,-175.12,-83.37,355.44,-1.06,-0.13,0.75,0.01,-0.09,-0.15,-9.06,-67.25,8.00,-0.31,-0.31,0.81,4,2
1772652235.829201,703712,-0.01,-0.09,0.06,-175.12,-83.44,355.37,-4.19,0.37,0.13,-0.01,-0.01,-0.22,-9.13,-67.25,7.94,-0.50,-0.94,1.62,4,3
1772652235.868784,703752,0.00,0.05,0.11,-175.12,-83.44,355.19,-5.31,0.13,-0.31,0.06,0.01,-0.14,-9.25,-67.25,7.87,1.31,-0.81,0.94,4,3
1772652235.908435,703791,-0.11,0.15,0.16,-175.12,-83.44,354.94,-3.37,0.06,0.37,0.03,0.05,-0.02,-9.38,-67.19,7.94,4.25,-1.25,-0.50,3,4
1772652235.949197,703832,0.00,0.16,0.06,-175.06,-83.37,354.81,-1.00,2.19,1.25,0.10,0.05,0.00,-9.56,-67.19,8.06,6.37,-0.88,-2.44,3,4
1772652235.989570,703872,0.02,0.19,-0.10,-175.00,-83.25,354.75,1.69,2.69,1.31,0.01,-0.23,-0.06,-9.50,-67.19,8.38,4.56,-0.81,-1.75,3,4
1772652236.029885,703913,0.08,-0.05,-0.12,-174.94,-83.19,354.81,4.25,2.00,0.25,0.09,-0.09,-0.01,-9.44,-67.12,8.50,-0.13,-2.25,-0.37,3,4
1772652236.069309,703952,0.10,-0.16,-0.15,-133.25,-83.12,355.00,3.06,1.37,0.31,0.07,-0.20,-0.03,-9.31,-67.06,8.50,-1.94,-2.87,0.94,3,4
1772652236.109429,703992,0.01,-0.19,-0.08,-133.81,-83.12,355.06,-0.75,0.56,-0.19,0.12,-0.11,-0.06,-9.31,-66.94,8.38,-2.31,-2.31,2.56,2,4
1772652236.150681,704033,0.00,-0.02,-0.03,-134.00,-83.12,355.00,-5.31,0.81,-0.37,-0.05,-0.03,0.03,-9.44,-66.81,8.25,-1.37,-1.44,3.31,2,3
1772652236.190398,704073,-0.08,0.16,0.00,-134.06,-83.06,354.75,-6.06,0.88,-0.75,0.11,0.13,0.02,-9.69,-66.75,8.13,0.88,-0.19,1.94,2,3
1772652236.230499,704113,-0.04,0.25,-0.01,-134.06,-83.06,354.50,-3.25,1.87,-0.81,0.06,0.05,0.02,-9.88,-66.75,8.06,1.69,0.25,0.69,2,2
1772652236.270763,704153,-0.02,0.10,-0.06,-134.62,-83.00,354.44,0.88,2.94,-1.81,0.03,-0.02,-0.06,-10.00,-66.75,8.13,1.37,1.50,-0.19,2,3
1772652236.309965,704193,0.01,-0.02,-0.02,-135.81,-82.94,354.56,2.37,2.50,-1.69,0.04,0.00,-0.01,-10.06,-66.87,8.13,2.19,2.19,-0.94,2,2
1772652236.351051,704234,0.03,0.00,0.00,-136.75,-82.94,354.75,2.62,2.06,-1.62,0.09,-0.10,-0.12,-10.13,-67.00,8.25,2.56,3.94,0.00,2,2
1772652236.391380,704274,-0.13,-0.03,-0.09,-138.19,-82.87,354.94,1.81,3.00,-3.00,0.05,-0.23,0.08,-10.25,-67.12,8.25,-1.50,1.62,1.12,2,2
1772652236.431850,704314,0.08,-0.22,-0.20,-139.69,-82.87,355.12,-0.06,4.50,-3.56,-0.02,-0.16,-0.11,-10.25,-67.12,8.13,-2.62,1.25,2.37,1,2
1772652236.471307,704354,0.36,-0.04,-0.09,-141.00,-82.87,355.12,-4.75,0.94,-1.00,-0.08,-0.08,-0.28,-10.38,-67.19,8.06,1.69,0.00,1.69,1,3
1772652236.509995,704393,0.13,0.10,0.05,-140.31,-82.94,354.94,-3.87,-5.50,-0.19,0.07,0.00,-0.13,-10.56,-67.19,8.06,3.50,-2.12,0.62,1,3
1772652236.552080,704435,-0.25,0.00,0.14,-139.19,-83.06,354.87,0.81,-2.37,-0.31,0.15,-0.09,0.06,-10.56,-67.06,8.13,-1.62,-2.94,0.62,1,4
1772652236.592486,704475,-0.10,-0.32,-0.10,-139.25,-83.12,354.94,0.81,1.81,-0.88,0.08,-0.16,0.06,-10.50,-66.94,7.94,-7.00,-2.06,3.12,2,4
1772652236.632558,704515,-0.11,-0.31,-0.25,-139.81,-83.06,354.87,-6.06,2.50,0.31,-0.05,0.10,0.01,-10.50,-66.87,7.62,-6.50,-0.81,3.44,3,4
1772652236.671598,704555,0.07,0.06,-0.11,-140.31,-82.94,354.44,-9.94,1.75,0.44,0.02,0.14,-0.06,-10.56,-66.87,7.37,-0.50,1.75,1.87,3,4
1772652236.710831,704594,0.21,0.25,0.03,-140.00,-82.94,354.12,-7.06,-1.06,1.44,0.07,0.05,-0.13,-10.75,-66.94,7.37,2.25,0.50,0.56,3,4
1772652236.752682,704635,0.09,0.34,0.05,-138.81,-82.94,353.87,-1.12,-2.50,1.37,0.07,-0.04,-0.08,-10.88,-66.94,7.44,2.87,0.06,-0.37,3,4
1772652236.792908,704676,0.03,0.14,0.01,-137.62,-82.94,353.81,3.50,-2.37,0.69,0.02,-0.07,-0.06,-10.94,-66.94,7.56,1.75,-1.62,-0.75,3,4
1772652236.833495,704716,-0.10,-0.03,0.00,-137.00,-83.00,354.00,4.19,-2.69,-0.44,0.04,-0.15,0.01,-10.88,-66.87,7.62,-0.13,-0.94,-0.88,4,4
1772652236.873685,704756,-0.03,-0.16,-0.05,-136.81,-83.06,354.12,2.12,-0.56,0.37,0.08,-0.11,-0.01,-10.75,-66.87,7.62,-0.56,-0.25,-0.69,3,3
1772652236.913042,704795,-0.02,-0.12,-0.06,-136.75,-83.06,354.12,-1.06,-0.13,1.62,0.06,-0.15,0.05,-10.63,-66.81,7.62,-0.50,-1.37,-0.13,3,4
1772652236.953752,704837,0.00,-0.02,-0.06,-136.31,-83.00,354.00,-3.50,0.37,3.25,0.07,-0.06,-0.03,-10.56,-66.75,7.69,0.69,-0.25,0.44,3,3
1772652236.993771,704877,0.08,0.23,0.00,-135.19,-82.87,353.56,-4.62,0.19,3.00,0.05,-0.03,-0.05,-10.63,-66.75,7.69,1.94,-0.37,0.37,2,3
1772652237.033847,704917,0.06,0.26,0.00,-134.69,-82.81,353.37,-2.25,0.44,0.69,0.04,-0.03,-0.05,-10.75,-66.75,7.69,1.50,-0.50,1.06,2,3
1772652237.073363,704956,0.07,0.21,0.00,-134.50,-82.81,353.31,0.00,-0.06,-0.62,0.05,-0.05,-0.05,-10.88,-66.75,7.69,1.19,0.06,1.56,2,3
1772652237.112793,704996,-0.04,0.15,0.03,-134.62,-82.81,353.37,1.62,-0.50,-2.44,0.03,-0.10,-0.05,-11.06,-66.75,7.69,1.06,0.44,1.50,3,3
1772652237.154534,705037,-0.09,-0.01,0.00,-135.31,-82.87,353.56,2.25,0.44,-3.56,0.05,-0.01,0.09,-11.25,-66.75,7.56,-1.94,-1.62,3.44,3,3
1772652237.194741,705078,-0.01,-0.05,-0.11,-136.81,-82.94,353.81,0.62,3.19,-3.12,0.04,-0.08,0.03,-11.44,-66.69,7.44,1.81,1.44,2.00,3,4
1772652237.234779,705118,0.18,0.15,-0.13,-137.87,-82.94,353.81,-1.31,2.06,-1.81,0.03,-0.11,-0.03,-11.75,-66.69,7.50,4.62,1.37,1.50,3,4
1772652237.308538,705157,0.13,0.18,-0.06,-138.31,-82.94,353.81,0.62,0.37,-2.44,0.09,-0.13,0.03,-12.06,-66.69,7.56,4.56,1.06,1.75,4,3
1772652237.320159,705196,-0.11,0.14,0.01,-138.87,-82.94,353.94,2.12,-0.88,-3.25,0.02,-0.11,0.01,-12.38,-66.75,7.56,3.06,0.25,2.94,4,3
1772652237.361584,705238,-0.08,-0.09,0.02,-139.75,-83.06,354.19,2.31,1.31,-5.00,0.09,-0.18,0.03,-12.69,-66.69,7.50,0.25,0.31,3.31,4,3
1772652237.395689,705278,-0.12,-0.13,0.05,-175.75,-83.12,354.50,-1.00,2.62,-4.25,0.07,-0.12,-0.07,-12.94,-66.69,7.37,-0.44,0.25,3.19,4,3
1772652237.435721,705319,0.00,0.00,0.04,-143.44,-83.12,354.50,-3.31,4.75,-2.62,-0.03,-0.05,-0.18,-13.19,-66.69,7.25,0.94,1.87,1.81,4,2
1772652237.474741,705358,0.26,-0.01,0.00,-144.62,-83.00,354.37,-3.56,3.75,-1.06,0.00,0.04,-0.19,-13.44,-66.81,7.25,2.87,4.69,1.50,3,2
1772652237.513764,705397,0.24,0.11,0.06,-145.06,-82.94,354.31,-2.25,0.75,-1.62,0.07,0.03,-0.32,-13.88,-67.06,7.31,6.37,5.87,0.19,2,2
1772652237.555743,705439,0.15,0.12,0.07,-145.44,-83.00,354.37,1.12,-2.62,-3.94,-0.01,0.03,-0.28,-14.31,-67.31,7.44,5.00,5.37,0.50,2,2
1772652237.596262,705479,-0.06,-0.06,0.13,-176.25,-83.31,354.75,4.12,-3.81,-5.81,0.04,-0.01,-0.20,-14.69,-67.50,7.50,2.37,2.81,1.25,2,2
1772652237.636493,705519,-0.26,-0.20,0.16,-176.56,-83.56,355.19,3.81,-3.25,-5.19,0.06,-0.01,-0.19,-14.94,-67.62,7.50,0.94,1.12,1.56,2,2
1772652237.675654,705559,-0.45,-0.31,0.17,-176.75,-83.75,355.50,2.50,0.75,-5.00,0.09,0.05,0.02,-15.13,-67.62,7.44,-1.06,-0.75,2.31,2,2
1772652237.715211,705598,-0.41,-0.32,0.04,-177.00,-83.81,355.81,0.50,6.69,-2.75,0.10,0.05,0.07,-15.25,-67.56,7.31,-1.44,-1.06,2.25,2,3
1772652237.757136,705640,-0.24,-0.13,-0.06,-177.19,-83.62,355.94,-1.12,10.75,-0.31,0.11,0.12,0.06,-15.38,-67.44,7.19,-0.75,-0.37,1.44,2,3
1772652237.797027,705680,0.07,-0.06,-0.18,-155.50,-83.12,355.81,-1.31,11.88,1.19,0.14,0.13,-0.01,-15.50,-67.44,7.12,0.31,0.62,-0.37,2,3
1772652237.837419,705720,0.01,-0.10,-0.21,-156.44,-82.69,355.69,-1.19,11.19,2.50,0.11,0.12,0.03,-15.44,-67.44,7.12,-0.13,0.88,-1.62,2,3
1772652237.876436,705759,0.05,0.00,-0.12,-156.87,-82.25,355.50,-1.62,8.94,2.87,0.06,0.08,-0.16,-15.31,-67.50,7.25,1.94,1.37,-3.50,2,3
1772652237.915913,705799,0.15,-0.02,-0.12,-157.06,-82.00,355.37,-1.31,7.44,2.81,0.00,-0.11,-0.33,-15.13,-67.56,7.44,1.25,-0.50,-3.00,2,3
1772652237.957797,705841,0.22,0.04,-0.09,-156.94,-81.69,355.19,-1.87,3.94,3.19,0.00,-0.14,-0.38,-14.81,-67.50,7.50,-1.87,-7.31,0.25,2,3
1772652237.998193,705881,0.09,-0.11,0.05,-156.44,-81.56,354.94,-2.25,0.75,1.69,0.11,-0.19,-0.22,-14.50,-67.25,7.44,-5.69,-10.69,2.87,2,3
1772652238.038388,705921,-0.08,-0.13,0.17,-155.94,-81.50,354.69,-6.81,-0.19,2.44,0.03,-0.18,-0.09,-14.25,-66.87,7.25,-4.87,-10.69,3.62,2,4
1772652238.077270,705960,-0.08,0.07,0.24,-155.12,-81.50,354.31,-9.88,2.19,2.87,0.07,-0.21,-0.13,-14.13,-66.44,7.00,-4.56,-10.63,5.12,2,4
1772652238.116393,705999,-0.01,0.31,0.15,-154.19,-81.37,353.75,-10.13,3.50,2.25,0.10,-0.03,-0.01,-14.13,-66.00,6.75,-3.06,-11.50,5.12,1,4
1772652238.158184,706041,0.00,0.51,0.04,-153.50,-81.25,353.19,-8.13,4.75,1.94,0.15,0.04,0.17,-14.25,-65.56,6.56,0.06,-10.94,4.56,2,3
1772652238.198571,706082,0.08,0.63,-0.16,-153.12,-80.94,352.62,-3.37,6.00,1.56,0.14,0.01,0.30,-14.44,-65.12,6.44,1.00,-9.81,4.50,2,3
1772652238.238850,706122,0.05,0.43,-0.26,-152.56,-80.56,352.37,2.56,5.69,-0.37,0.15,-0.03,0.38,-14.63,-64.69,6.31,1.25,-7.37,3.44,2,3
1772652238.277803,706161,0.12,0.32,-0.33,-152.94,-80.19,352.37,4.62,6.37,0.37,0.14,-0.02,0.36,-14.69,-64.31,6.31,3.94,-2.56,0.62,2,3
1772652238.316845,706200,0.21,0.27,-0.36,-153.25,-79.87,352.37,5.94,5.75,-1.00,0.19,-0.12,0.24,-14.69,-64.19,6.37,3.44,-0.62,0.19,2,3
1772652238.359123,706242,0.27,0.06,-0.33,-154.31,-79.56,352.62,7.06,4.94,-2.87,0.09,-0.17,0.05,-14.75,-64.12,6.50,1.87,1.44,0.88,2,3
1772652238.399468,706283,0.33,0.00,-0.29,-156.06,-79.31,353.19,6.44,2.12,-4.69,0.08,-0.11,-0.17,-14.94,-64.19,6.50,1.37,1.75,2.12,2,3
1772652238.439889,706323,0.30,-0.01,-0.26,-157.44,-79.37,353.62,5.00,-3.50,-6.50,0.05,-0.01,-0.09,-15.19,-64.25,6.44,1.94,1.25,2.50,2,2
1772652238.478803,706362,0.19,0.08,-0.13,-158.37,-79.62,354.06,4.81,-8.69,-8.38,0.11,0.00,-0.17,-15.50,-64.25,6.37,2.06,1.69,2.37,2,2
1772652238.518130,706401,0.10,0.10,-0.01,-159.56,-80.06,354.69,10.13,-11.63,-8.75,0.13,0.05,-0.12,-15.81,-64.31,6.31,0.75,1.69,3.37,2,2
1772652238.560255,706443,0.07,-0.14,0.08,-160.87,-80.62,355.62,14.94,-14.44,-7.75,0.13,0.14,-0.12,-16.19,-64.31,6.12,0.00,0.94,3.37,2,3
1772652238.600496,706483,-0.23,-0.23,0.19,-162.06,-81.50,356.87,17.37,-17.12,-5.69,0.08,0.02,-0.15,-16.50,-64.37,6.00,0.62,2.37,2.31,2,3
1772652238.640693,706524,-0.30,-0.51,0.27,-162.37,-82.12,357.81,17.50,-14.75,-2.25,0.11,0.00,-0.04,-16.69,-64.44,5.94,-0.13,1.69,0.88,3,3
1772652238.679823,706563,-0.22,-0.45,0.12,-162.56,-82.62,358.69,14.44,-10.06,0.75,0.12,-0.09,-0.19,-16.81,-64.50,5.87,-0.13,1.75,0.69,3,4
1772652238.719210,706602,-0.25,-0.38,0.08,-162.81,-82.94,359.12,9.81,-6.87,2.19,0.05,-0.07,-0.07,-16.94,-64.50,5.81,-1.31,0.94,2.19,3,5
1772652238.761026,706644,0.09,-0.30,0.00,-177.94,-83.12,359.50,4.50,-5.37,3.19,0.05,-0.13,-0.26,-17.12,-64.56,5.69,-0.13,-1.31,3.75,4,5
1772652238.801441,706684,0.14,-0.12,0.02,-177.81,-83.44,359.50,-1.06,-8.75,2.25,0.04,-0.02,-0.42,-17.37,-64.50,5.56,2.12,-2.50,3.19,4,4
1772652238.841668,706724,-0.16,0.10,0.24,-177.75,-83.75,359.37,-2.50,-9.44,-0.25,0.06,-0.01,-0.35,-17.69,-64.37,5.56,3.87,-5.12,2.69,3,4
1772652238.880654,706764,-0.30,0.07,0.42,-177.81,-84.06,359.37,0.13,-6.25,-1.31,0.23,-0.11,-0.08,-17.87,-64.12,5.56,0.88,-8.31,4.31,4,4
1772652238.920449,706803,-0.33,-0.07,0.29,-177.81,-84.25,359.44,1.00,-0.25,-1.19,0.22,-0.10,0.11,-18.00,-63.75,5.37,-2.19,-7.62,5.00,4,4
1772652238.962189,706845,-0.21,-0.06,0.01,-177.87,-84.25,359.50,-0.06,5.62,-0.75,0.18,-0.04,0.14,-18.06,-63.44,5.12,-1.31,-3.62,3.19,4,3
1772652239.001951,706885,0.10,0.00,-0.19,-177.87,-83.87,359.44,-1.56,7.87,0.13,0.16,0.00,0.03,-18.19,-63.31,5.06,0.19,-1.62,2.06,3,4
1772652239.042287,706925,0.13,0.06,-0.22,-177.87,-83.69,359.37,-2.00,5.87,0.44,0.09,-0.05,-0.05,-18.25,-63.25,5.00,0.81,0.37,1.12,3,4
1772652239.081500,706964,0.21,0.01,-0.19,-177.87,-83.44,359.25,-1.69,4.25,0.06,0.09,-0.02,-0.05,-18.37,-63.19,4.94,-1.62,0.37,1.87,2,3
1772652239.120972,707004,0.19,-0.14,-0.14,-177.87,-83.37,359.19,-3.00,1.25,-0.81,0.07,-0.09,-0.17,-18.44,-63.19,4.81,-2.06,0.81,2.12,2,3
1772652239.163058,707046,0.06,-0.18,-0.02,-177.94,-83.31,359.06,-7.00,-1.19,-0.62,0.10,-0.03,-0.08,-18.56,-63.19,4.62,-1.50,0.62,2.75,2,3
1772652239.203177,707086,0.01,-0.03,0.07,-177.87,-83.37,358.69,-8.88,-1.06,-0.25,0.12,0.04,-0.16,-18.75,-63.19,4.56,1.25,-0.50,2.69,1,4
1772652239.243268,707126,-0.02,0.10,0.11,-177.87,-83.44,358.25,-9.31,-1.31,-0.81,0.12,-0.02,-0.26,-19.00,-63.13,4.50,3.31,0.75,2.06,1,4
1772652239.282406,707165,-0.02,0.10,0.22,-177.87,-83.50,357.94,-7.81,-1.62,-1.56,0.14,0.01,-0.13,-19.31,-63.13,4.50,3.25,-1.50,1.06,1,4
1772652239.321543,707204,-0.18,0.15,0.27,-177.87,-83.62,357.75,-4.87,-0.13,-0.75,0.16,-0.02,-0.13,-19.44,-63.06,4.56,3.19,-0.62,0.31,1,4
1772652239.363555,707246,-0.07,0.00,0.15,-177.87,-83.62,357.56,-1.75,2.94,-1.00,0.15,-0.11,-0.20,-19.50,-63.06,4.62,1.25,-0.50,0.31,1,5
1772652239.404030,707287,-0.05,-0.09,0.10,-177.87,-83.50,357.56,-1.25,3.69,-0.62,0.12,-0.05,-0.12,-19.56,-63.06,4.62,1.06,-1.00,0.19,1,4
1772652239.444191,707327,-0.10,-0.04,0.01,-177.87,-83.37,357.50,-1.50,4.06,-0.19,0.12,-0.07,-0.16,-19.56,-63.00,4.69,1.44,-0.94,0.94,2,5
1772652239.483236,707366,-0.05,-0.08,0.03,-177.87,-83.25,357.44,-1.75,4.62,-0.50,0.12,0.00,0.00,-19.62,-62.94,4.62,-0.06,-1.31,1.75,2,5
1772652239.522676,707405,0.01,-0.14,-0.02,-162.37,-83.06,357.37,-1.87,5.81,-0.13,0.14,0.00,-0.06,-19.69,-62.88,4.56,-1.44,-1.75,1.19,2,5
1772652239.564574,707447,0.02,-0.11,-0.03,-162.94,-82.87,357.25,-2.69,4.75,0.25,0.14,-0.03,-0.10,-19.69,-62.81,4.50,-1.25,-1.44,1.00,2,4
1772652239.604846,707488,0.01,-0.14,-0.09,-163.44,-82.62,357.12,-3.00,4.06,0.44,0.14,0.00,-0.13,-19.69,-62.75,4.44,-0.62,-1.56,1.12,2,4
1772652239.644986,707528,0.02,-0.07,-0.11,-163.44,-82.50,356.94,-4.12,3.06,1.12,0.09,0.04,-0.12,-19.69,-62.69,4.44,0.13,-1.62,0.62,2,4
1772652239.685203,707568,-0.07,-0.03,-0.06,-163.25,-82.37,356.69,-4.56,3.44,1.50,0.14,0.00,-0.07,-19.69,-62.63,4.44,1.37,-1.19,0.19,2,5
1772652239.724185,707607,0.02,-0.02,0.01,-163.00,-82.25,356.44,-4.87,3.37,1.44,0.18,0.03,-0.06,-19.75,-62.63,4.50,1.62,-0.25,-0.94,2,6
1772652239.765473,707648,0.00,0.02,-0.04,-162.75,-82.12,356.25,-4.50,3.56,1.56,0.14,-0.02,-0.06,-19.69,-62.63,4.56,0.81,0.88,-1.75,3,4
1772652239.805583,707689,0.09,0.00,-0.02,-162.44,-81.94,355.87,-4.62,3.12,1.19,0.09,-0.14,-0.17,-19.69,-62.69,4.62,1.56,0.56,-1.75,3,5
1772652239.845859,707729,0.10,0.04,-0.03,-162.12,-81.87,355.62,-4.62,1.12,1.00,0.07,-0.03,-0.18,-19.56,-62.75,4.75,0.81,-0.81,-2.31,4,4
1772652239.885069,707768,0.03,0.09,0.02,-161.62,-81.87,355.44,-3.31,-1.50,0.75,0.10,-0.04,-0.18,-19.37,-62.75,4.87,-0.56,-1.25,-1.75,3,4
1772652239.924566,707807,-0.03,-0.10,0.14,-161.31,-81.94,355.37,-1.50,-2.69,1.06,0.11,-0.06,-0.21,-19.19,-62.69,4.87,-2.00,-2.19,-1.37,4,4
1772652239.966699,707849,-0.11,-0.07,0.12,-160.56,-82.00,355.19,-2.00,-2.62,2.94,0.10,-0.15,-0.08,-19.00,-62.63,4.94,-2.00,-1.69,-0.56,3,5
1772652240.006653,707889,-0.02,-0.07,0.11,-159.25,-82.06,354.94,-3.37,-0.56,3.12,0.07,-0.09,-0.13,-18.87,-62.56,4.87,-3.69,-1.87,0.75,4,5
1772652240.046820,707930,-0.09,0.07,0.12,-158.50,-82.06,354.69,-5.00,-0.50,1.12,0.07,-0.08,-0.14,-18.75,-62.50,4.75,-5.19,-1.69,2.19,5,6
1772652240.085858,707969,-0.12,-0.01,0.16,-158.44,-82.06,354.50,-3.81,1.06,-0.88,0.11,0.03,-0.14,-18.62,-62.38,4.44,-8.00,-3.75,4.00,5,5
1772652240.124764,708008,-0.04,0.16,0.01,-158.56,-82.06,354.37,-2.50,2.81,-0.81,0.17,0.03,-0.07,-18.56,-62.19,4.19,-5.25,-3.69,3.87,6,5
1772652240.166738,708050,0.02,0.22,-0.05,-158.94,-81.94,354.31,1.87,3.00,-0.88,0.16,0.09,0.00,-18.56,-62.00,3.94,-2.87,-3.31,3.12,5,5
1772652240.207264,708090,0.16,0.36,-0.04,-159.12,-81.75,354.50,6.44,2.06,0.44,0.07,0.23,-0.19,-18.56,-61.81,3.81,-1.06,-4.06,-0.69,6,5
1772652240.247316,708130,0.13,0.38,0.00,-158.81,-81.75,354.87,15.50,-2.50,0.13,0.20,0.05,0.01,-18.44,-61.69,3.87,3.31,-5.06,-3.00,6,5
1772652240.286518,708169,0.04,0.25,-0.06,-158.12,-81.81,355.69,25.12,-5.06,3.69,0.19,-0.01,0.20,-18.25,-61.56,4.12,5.37,-3.06,-3.69,6,5
1772652240.325512,708209,0.13,0.11,-0.18,-157.50,-81.87,356.44,30.12,-4.62,4.56,0.21,-0.25,0.08,-18.12,-61.56,4.44,2.25,1.00,-3.87,6,5
1772652240.367739,708251,0.19,-0.15,-0.23,-157.06,-82.00,357.62,29.25,-6.56,3.50,0.12,-0.29,-0.03,-17.75,-61.63,4.56,-2.25,1.94,-3.44,6,5
1772652240.408177,708291,0.21,-0.14,-0.19,-156.69,-82.19,358.94,23.12,-7.94,3.44,0.04,-0.22,-0.19,-17.44,-61.81,4.69,-0.06,2.00,-2.00,5,4
1772652240.448329,708331,0.11,-0.18,-0.05,-156.00,-82.44,359.75,16.94,-10.38,1.69,0.08,-0.02,-0.22,-17.44,-61.88,4.75,2.87,-1.00,0.69,4,4
1772652240.487543,708370,-0.03,-0.09,0.18,-154.94,-82.87,0.31,11.19,-12.63,-0.31,0.09,-0.08,-0.28,-17.62,-61.81,4.81,5.31,-0.81,0.81,4,3
1772652240.526933,708410,-0.21,-0.09,0.37,-177.06,-83.25,0.75,9.25,-10.81,-4.31,0.08,-0.02,-0.23,-17.87,-61.75,4.81,0.31,-1.81,2.87,4,4
1772652240.568926,708452,-0.31,-0.40,0.43,-177.31,-83.62,1.31,6.87,-7.62,-5.56,0.18,-0.02,-0.29,-17.94,-61.69,4.62,-4.31,-4.06,2.62,4,4
1772652240.609132,708492,-0.45,-0.53,0.31,-177.56,-84.00,1.81,1.25,-1.87,-4.06,0.25,-0.01,0.18,-17.81,-61.50,4.44,-4.50,-5.06,2.75,3,4
1772652240.649143,708532,-0.44,-0.38,0.06,-177.87,-84.12,2.00,-4.06,5.94,-1.56,0.18,0.00,0.24,-17.75,-61.31,4.25,-3.62,-0.50,1.75,3,4
1772652240.688866,708572,-0.03,-0.15,-0.18,-177.87,-83.75,1.75,-8.44,11.69,0.81,0.06,0.08,-0.03,-17.75,-61.31,4.19,-1.31,1.94,-0.19,3,3
1772652240.727671,708611,0.36,0.16,-0.22,-177.81,-83.37,1.25,-10.94,8.88,0.19,0.08,0.14,-0.16,-17.75,-61.44,4.19,2.62,0.75,-1.81,3,3
1772652240.769522,708652,0.39,0.34,-0.18,-177.75,-83.19,0.94,-6.12,2.00,-0.69,0.13,0.02,-0.25,-17.81,-61.44,4.44,6.19,-1.00,-2.31,3,3
1772652240.809821,708693,0.13,0.24,-0.11,-177.75,-83.19,0.81,0.50,-2.31,-0.19,0.17,-0.15,-0.04,-17.81,-61.44,4.62,3.75,-1.62,-1.31,3,3
1772652240.850243,708733,0.00,-0.03,-0.07,-177.75,-83.31,0.88,4.06,-3.62,0.69,0.13,-0.06,-0.05,-17.81,-61.38,4.75,-0.13,-0.94,-0.75,3,4
1772652240.889421,708772,-0.11,-0.26,-0.01,-177.69,-83.44,1.00,2.25,-3.25,0.88,0.13,0.00,0.01,-17.75,-61.38,4.75,-0.81,-1.31,-0.56,4,4
1772652240.928561,708811,-0.05,-0.23,0.02,-177.69,-83.50,1.00,-1.44,-2.37,1.94,0.12,-0.05,-0.02,-17.69,-61.38,4.81,0.75,0.50,-1.50,4,3
1772652240.970209,708853,0.00,-0.02,0.05,-177.62,-83.56,0.81,-3.00,-1.56,3.31,0.13,-0.03,0.02,-17.56,-61.38,4.87,0.94,0.69,-2.31,4,3
1772652241.010685,708894,-0.05,0.03,0.01,-177.44,-83.56,0.56,-1.56,-0.44,2.56,0.13,0.00,-0.09,-17.44,-61.44,5.00,-1.56,0.94,-0.69,5,4
1772652241.051086,708934,0.08,-0.04,-0.02,-177.37,-83.50,0.44,-1.81,-0.88,1.75,0.12,-0.03,-0.20,-17.37,-61.50,4.94,-0.44,2.31,-1.31,5,5
1772652241.089876,708973,0.07,0.01,0.03,-177.31,-83.56,0.25,-2.56,-1.75,1.25,0.10,0.00,-0.05,-17.31,-61.63,5.00,-0.81,2.19,-1.06,5,5
1772652241.129131,709012,0.04,0.05,0.03,-177.25,-83.62,0.19,-2.69,-2.75,0.56,0.08,-0.03,-0.13,-17.25,-61.69,5.00,-1.75,1.81,-0.88,4,5
1772652241.171021,709054,-0.03,0.11,0.05,-177.25,-83.69,0.06,-1.87,-2.75,0.50,0.05,0.00,-0.15,-17.19,-61.75,5.00,-0.94,1.62,-1.06,4,5
1772652241.211338,709094,0.05,0.00,0.17,-177.25,-83.81,0.00,0.13,-3.12,0.94,0.09,-0.04,-0.20,-17.12,-61.81,5.06,-0.06,1.25,-2.06,4,5
1772652241.251876,709135,-0.03,-0.06,0.12,-177.19,-83.94,359.94,-0.06,-3.94,2.00,0.11,-0.13,-0.12,-17.00,-61.88,5.12,-2.06,-0.69,-0.94,4,5
1772652241.291076,709174,-0.13,-0.07,0.14,-177.12,-84.06,359.87,-1.62,-2.44,1.94,0.11,-0.05,-0.08,-16.81,-61.88,5.06,-1.87,-1.00,-0.88,4,5
1772652241.331502,709214,-0.12,0.10,0.10,-177.00,-84.06,359.62,-2.87,-0.62,2.56,0.13,-0.08,0.02,-16.69,-61.88,5.12,-0.81,-0.88,-0.50,3,5
1772652241.372194,709255,-0.06,0.09,0.02,-176.87,-83.94,359.44,-2.31,1.75,2.87,0.10,-0.07,-0.01,-16.62,-61.88,5.06,-0.37,0.25,0.13,3,5
1772652241.412336,709295,0.13,0.20,-0.01,-176.75,-83.87,359.19,-3.00,0.69,3.25,0.05,0.04,-0.21,-16.69,-61.94,5.12,3.81,1.00,-1.44,2,5
1772652241.452712,709336,-0.01,0.13,0.08,-176.62,-83.81,359.00,-0.19,-0.88,-0.31,0.16,-0.13,-0.01,-16.69,-61.94,5.25,2.00,-0.75,-1.50,2,4
1772652241.491680,709375,-0.23,-0.24,0.00,-176.69,-83.87,359.12,1.00,1.12,-2.06,0.16,-0.14,0.08,-16.62,-61.88,5.31,-2.44,-1.44,0.13,2,3
1772652241.530942,709414,-0.06,-0.42,-0.07,-176.75,-83.75,359.12,-4.00,4.56,-1.31,0.10,-0.09,-0.11,-16.44,-61.88,5.19,-4.37,-0.50,1.12,3,4
1772652241.572885,709456,-0.07,-0.35,0.00,-176.81,-83.69,358.94,-10.56,4.69,-0.56,0.08,-0.11,-0.10,-16.37,-61.81,5.06,-2.69,-1.69,1.44,2,4
1772652241.613152,709496,-0.08,-0.13,0.00,-176.81,-83.50,358.25,-15.63,5.25,0.06,0.11,0.00,-0.01,-16.37,-61.75,4.94,-3.00,-1.12,1.81,3,3
1772652241.653274,709536,0.02,0.01,0.00,-176.75,-83.31,357.56,-16.50,6.81,0.50,0.10,0.11,-0.13,-16.37,-61.69,4.81,-0.37,-0.19,0.50,3,5
1772652241.693400,709576,0.11,0.11,0.02,-151.37,-83.06,356.81,-16.19,6.00,-0.19,0.08,0.01,-0.16,-16.37,-61.69,4.81,0.94,0.44,-0.69,3,5
1772652241.732527,709616,0.07,0.12,0.05,-151.56,-82.87,356.19,-13.00,4.50,-0.13,0.11,0.00,-0.21,-16.37,-61.69,4.87,1.44,0.06,-0.88,3,5
1772652241.773744,709657,0.06,0.14,0.04,-151.25,-82.75,355.69,-9.50,2.50,1.37,0.04,-0.12,-0.17,-16.37,-61.75,5.00,1.94,-0.06,-0.88,3,5
1772652241.814149,709697,0.05,0.10,0.05,-150.50,-82.69,355.25,-5.62,0.06,2.00,0.11,-0.14,-0.08,-16.37,-61.69,5.06,0.56,-0.62,-0.44,3,6
1772652241.854281,709737,-0.07,0.09,0.06,-149.37,-82.69,355.00,-2.56,-1.44,3.00,0.06,-0.07,0.00,-16.37,-61.69,5.00,-0.69,-0.88,0.44,3,5
1772652241.894631,709777,-0.06,0.01,0.04,-148.37,-82.69,354.81,-1.62,-1.00,2.81,0.12,-0.12,-0.10,-16.37,-61.69,5.00,-1.12,-1.12,-0.06,2,6
1772652241.933549,709816,-0.07,0.02,0.11,-147.69,-82.62,354.62,-2.50,0.75,1.94,0.12,-0.08,-0.05,-16.25,-61.63,4.94,-2.56,-2.06,1.00,2,6
1772652241.974570,709858,-0.01,0.02,0.04,-147.62,-82.56,354.50,-2.62,2.25,0.44,0.09,-0.05,-0.08,-16.25,-61.56,4.87,-2.31,-1.56,1.56,3,6
1772652242.014632,709898,0.06,0.15,0.00,-147.94,-82.44,354.37,-2.50,2.75,-0.25,0.10,0.00,0.00,-16.19,-61.44,4.75,-1.69,-1.37,1.44,2,6
1772652242.054969,709938,0.14,0.19,-0.11,-148.31,-82.37,354.31,0.06,1.31,-1.44,0.10,0.02,-0.08,-16.25,-61.44,4.69,-0.13,0.00,0.81,2,4
1772652242.095408,709978,0.24,0.19,-0.11,-148.56,-82.37,354.44,3.44,-2.69,-2.50,0.11,0.01,-0.07,-16.25,-61.44,4.69,0.88,0.00,-0.19,2,4
1772652242.134496,710017,0.00,0.14,0.00,-148.62,-82.56,354.75,6.75,-4.94,-2.56,0.11,-0.06,-0.10,-16.31,-61.44,4.75,2.19,0.69,-1.06,2,4
1772652242.175445,710058,0.02,0.06,0.02,-148.69,-82.75,355.25,10.44,-5.50,-2.12,0.13,-0.10,-0.09,-16.31,-61.50,4.81,0.88,0.62,-0.56,2,4
1772652242.215869,710099,-0.06,-0.09,0.05,-148.69,-83.00,355.81,11.13,-5.50,-1.50,0.11,-0.06,-0.04,-16.31,-61.50,4.81,0.31,-0.19,0.25,4,3
1772652242.256158,710139,-0.10,-0.15,0.01,-176.44,-83.19,356.31,8.63,-4.69,-0.69,0.11,-0.04,-0.05,-16.37,-61.50,4.81,0.88,-0.25,0.31,4,3
1772652242.296332,710179,-0.07,-0.13,0.00,-176.50,-83.31,356.62,5.56,-3.06,-0.88,0.11,-0.05,-0.08,-16.37,-61.50,4.81,0.56,-0.62,0.75,4,3
1772652242.336451,710219,0.00,-0.03,0.02,-176.56,-83.44,356.87,2.94,-1.94,-1.31,0.10,-0.03,-0.10,-16.44,-61.44,4.81,0.69,-0.81,0.75,5,5
1772652242.376585,710260,-0.01,0.03,0.04,-176.62,-83.56,357.00,1.62,-2.37,-1.44,0.09,-0.01,-0.09,-16.50,-61.44,4.81,1.62,0.13,0.19,4,5
1772652242.416757,710300,0.00,0.06,0.05,-176.69,-83.62,357.12,2.37,-1.81,-1.19,0.09,-0.03,-0.10,-16.56,-61.44,4.87,1.81,0.37,-0.06,5,5
1772652242.456850,710340,-0.01,0.08,0.06,-176.75,-83.75,357.31,3.94,-1.87,-1.37,0.13,-0.10,-0.25,-16.62,-61.44,4.94,1.75,0.88,0.00,5,5
1772652242.496857,710380,-0.04,0.04,0.05,-176.81,-83.81,357.56,6.25,-1.75,-1.00,0.09,0.00,-0.13,-16.69,-61.50,4.94,1.06,0.37,0.44,5,6
1772652242.536963,710420,-0.13,0.00,0.11,-176.81,-83.87,357.94,9.63,-2.69,0.25,0.08,-0.02,-0.16,-16.69,-61.50,4.94,0.62,0.19,0.31,6,6
1772652242.577607,710460,-0.03,-0.18,0.08,-176.81,-83.94,358.37,9.50,-0.94,1.00,0.12,-0.02,-0.11,-16.69,-61.44,4.94,0.00,-0.56,0.37,6,6
1772652242.617594,710500,-0.02,-0.24,0.04,-176.87,-84.00,358.69,5.94,0.31,0.56,0.14,-0.06,-0.16,-16.69,-61.44,4.94,-0.44,0.00,0.50,5,6
1772652242.657825,710541,-0.06,-0.26,0.01,-176.94,-84.00,358.87,0.62,1.50,-0.81,0.08,-0.01,-0.15,-16.75,-61.44,4.94,-0.56,-0.69,0.31,5,6
1772652242.698264,710581,-0.03,-0.06,-0.01,-177.00,-83.94,358.87,-2.31,1.69,-0.94,0.10,-0.08,-0.12,-16.69,-61.44,4.94,-0.69,-0.62,0.44,4,6
1772652242.738019,710621,-0.05,0.02,0.03,-177.00,-83.94,358.81,-2.37,1.62,0.56,0.14,-0.02,-0.08,-16.69,-61.44,4.94,-0.62,-0.37,0.50,4,5
1772652242.778398,710661,-0.01,0.01,-0.02,-176.94,-83.81,358.69,-0.69,3.06,1.37,0.12,0.00,-0.08,-16.69,-61.44,4.94,-0.37,-0.19,0.00,4,4
1772652242.818406,710701,-0.10,-0.04,0.02,-176.87,-83.69,358.56,-1.56,2.94,1.50,0.10,0.00,-0.07,-16.69,-61.44,4.94,-0.13,0.13,-0.62,4,5
1772652242.859899,710741,-0.04,-0.07,0.00,-176.81,-83.44,358.37,-3.87,6.62,0.75,0.10,0.00,-0.08,-16.62,-61.44,4.94,-0.13,0.19,-0.69,4,5
1772652242.898982,710782,-0.07,-0.10,0.00,-176.81,-83.19,358.12,-7.06,7.69,-0.81,0.09,-0.02,-0.08,-16.56,-61.44,4.94,-0.50,-0.13,-0.50,4,4
1772652242.937732,710821,0.03,-0.05,0.01,-153.44,-82.94,357.81,-8.75,8.44,-1.37,0.11,-0.10,-0.08,-16.56,-61.44,4.94,-1.81,-0.37,0.31,3,3
1772652242.978932,710862,0.03,-0.03,-0.04,-154.44,-82.69,357.44,-9.06,7.75,-0.62,0.11,-0.03,-0.10,-16.50,-61.44,4.87,-2.19,-0.25,0.62,3,3
1772652243.019199,710902,0.08,0.00,-0.04,-154.87,-82.44,357.00,-9.56,6.62,1.37,0.11,-0.01,-0.16,-16.44,-61.44,4.81,-0.56,-0.25,0.37,3,3
1772652243.059622,710942,0.16,0.07,-0.06,-154.69,-82.19,356.50,-9.13,4.37,1.81,0.10,-0.03,-0.15,-16.44,-61.44,4.81,0.75,-0.13,-0.37,3,4
1772652243.099402,710982,0.11,0.13,-0.02,-154.37,-82.06,356.06,-7.62,2.56,0.81,0.08,-0.03,-0.11,-16.50,-61.44,4.81,0.69,0.19,-0.50,2,4
1772652243.139740,711023,0.08,0.10,-0.03,-154.19,-82.00,355.75,-5.25,0.37,0.19,0.10,-0.05,-0.10,-16.50,-61.44,4.81,-0.19,-0.81,-0.19,3,4
1772652243.180151,711063,-0.05,0.13,0.01,-153.94,-82.00,355.56,-2.94,-0.81,0.62,0.08,-0.09,-0.10,-16.50,-61.44,4.81,-0.37,0.19,0.19,3,4
1772652243.220202,711103,0.00,0.04,0.01,-153.75,-82.00,355.56,-0.31,-1.06,0.37,0.11,-0.09,-0.07,-16.44,-61.38,4.81,-1.00,-0.50,0.13,3,3
1772652243.260402,711143,-0.04,0.03,0.03,-153.50,-82.06,355.50,-0.62,-1.06,1.12,0.10,-0.04,-0.10,-16.44,-61.38,4.81,-0.50,-0.25,-0.31,2,4
1772652243.300519,711183,0.00,0.04,0.02,-153.25,-82.06,355.44,-0.81,0.13,0.69,0.11,-0.03,-0.09,-16.44,-61.38,4.81,-0.75,-0.37,-0.37,2,4
1772652243.340643,711223,0.04,0.06,-0.01,-153.19,-82.00,355.37,-1.19,-0.06,0.13,0.09,-0.01,-0.04,-16.44,-61.38,4.75,-0.62,-0.37,0.00,2,4
1772652243.380907,711264,0.02,0.06,-0.02,-153.12,-82.06,355.37,-0.62,-0.62,-0.44,0.07,-0.04,-0.09,-16.44,-61.38,4.75,0.06,-0.37,0.06,2,5
1772652243.420881,711304,0.06,0.10,-0.02,-152.94,-82.06,355.37,0.37,-1.81,-0.69,0.07,0.00,-0.05,-16.44,-61.38,4.75,0.00,-0.81,0.13,1,4
1772652243.461133,711344,0.05,0.08,-0.05,-152.94,-82.19,355.44,2.50,-2.56,-1.25,0.13,0.00,-0.10,-16.44,-61.38,4.81,0.00,-0.37,0.00,1,4
1772652243.502248,711384,0.01,0.10,0.02,-152.75,-82.31,355.62,3.87,-4.87,-0.88,0.12,-0.04,-0.09,-16.44,-61.38,4.81,0.37,0.19,-0.37,2,4
1772652243.541227,711424,-0.05,0.11,0.06,-152.44,-82.50,355.94,7.94,-4.81,-0.44,0.08,-0.03,-0.06,-16.44,-61.38,4.81,0.25,0.00,0.00,1,4
1772652243.581732,711465,0.03,0.08,0.03,-152.12,-82.62,356.37,10.50,-4.50,0.50,0.09,-0.01,-0.06,-16.44,-61.38,4.81,-0.13,-0.13,0.25,1,4
1772652243.621663,711505,-0.06,-0.01,0.07,-151.69,-82.81,356.87,11.94,-4.69,0.94,0.09,-0.03,-0.05,-16.44,-61.38,4.81,0.06,0.25,0.00,1,4
1772652243.662007,711545,-0.03,-0.10,0.03,-151.37,-82.94,357.37,11.44,-3.00,0.81,0.11,-0.05,-0.09,-16.44,-61.38,4.81,0.19,0.37,-0.19,1,4
1772652243.702161,711585,-0.03,-0.14,0.05,-151.25,-83.00,357.75,8.06,-2.06,0.50,0.08,-0.08,-0.12,-16.44,-61.38,4.81,0.88,0.37,-0.44,2,5
1772652243.742228,711625,0.00,-0.08,0.03,-151.25,-83.06,358.00,4.25,-1.06,-0.37,0.11,-0.05,-0.12,-16.44,-61.38,4.81,1.12,0.25,-0.56,2,5
1772652243.782636,711665,-0.03,-0.03,0.00,-151.31,-83.12,358.12,2.19,-0.75,-0.81,0.07,-0.06,-0.03,-16.50,-61.38,4.81,0.56,0.19,0.19,2,5
1772652243.822437,711705,0.06,-0.01,0.01,-151.56,-83.12,358.25,0.94,-0.69,-0.75,0.10,-0.06,-0.14,-16.50,-61.44,4.81,0.13,0.62,0.37,3,6
1772652243.862890,711746,-0.01,0.03,-0.04,-176.75,-83.12,358.25,1.12,-0.88,-0.13,0.11,-0.05,-0.18,-16.50,-61.44,4.81,0.06,0.56,0.25,3,8
1772652243.902277,711785,-0.01,-0.03,0.00,-176.75,-83.19,358.37,2.44,-1.25,-1.25,0.06,-0.06,-0.10,-16.50,-61.44,4.81,-1.44,-0.75,1.00,3,9
1772652243.941592,711824,-0.04,-0.22,0.03,-176.81,-83.25,358.50,1.62,-1.31,-0.13,0.11,-0.01,-0.13,-16.50,-61.38,4.75,-1.31,-1.31,1.25,4,10
1772652243.983170,711866,-0.05,-0.12,0.04,-176.75,-83.25,358.50,-1.00,-1.62,1.00,0.07,-0.06,-0.16,-16.56,-61.31,4.69,-0.25,-1.69,1.37,4,10
1772652244.023369,711906,-0.10,-0.02,0.01,-176.69,-83.31,358.37,-2.94,-1.06,1.31,0.09,-0.04,-0.05,-16.62,-61.19,4.62,0.44,-2.56,2.00,3,9
1772652244.063427,711946,-0.06,0.09,0.03,-176.62,-83.25,358.12,-3.87,-0.25,1.69,0.13,0.00,-0.03,-16.69,-61.06,4.56,1.06,-2.25,1.44,4,9
1772652244.102535,711985,0.00,0.10,0.00,-176.56,-83.19,357.94,-2.44,1.19,1.87,0.15,-0.01,-0.10,-16.81,-61.00,4.56,1.87,-1.44,0.75,2,8
1772652244.141338,712024,0.06,0.08,-0.02,-176.50,-83.12,357.81,-0.81,0.69,1.75,0.12,0.00,-0.05,-16.87,-60.94,4.56,2.94,-0.25,-0.69,3,8
1772652244.183432,712066,0.12,0.01,-0.02,-148.94,-83.06,357.75,-0.75,1.94,1.87,0.15,-0.05,-0.04,-16.94,-60.94,4.75,4.37,-0.13,-1.44,3,7
1772652244.224124,712107,-0.03,0.03,0.02,-148.87,-83.00,357.56,-2.87,2.62,-0.13,0.09,-0.17,-0.17,-17.00,-61.00,4.87,1.81,1.75,-0.88,2,6
1772652244.264482,712147,0.17,-0.10,-0.01,-149.94,-82.81,357.50,-3.94,5.94,-2.31,0.06,-0.16,-0.30,-17.06,-61.06,4.87,-2.00,0.56,0.56,3,5
1772652244.303682,712186,0.13,-0.13,0.00,-151.00,-82.75,357.37,-5.50,3.00,-2.06,0.09,-0.12,-0.21,-16.94,-61.06,4.81,-2.00,-0.37,0.81,2,4
1772652244.343693,712227,-0.21,-0.06,0.05,-151.19,-82.69,357.12,-7.12,1.75,0.00,0.08,-0.08,-0.04,-17.00,-61.06,4.81,0.25,0.13,1.00,2,3
1772652244.384573,712268,-0.04,0.04,0.09,-151.37,-82.56,356.75,-7.69,3.25,0.50,0.11,-0.06,-0.09,-17.06,-61.06,4.75,0.13,-0.06,1.37,2,2
1772652244.424742,712308,0.00,0.08,0.08,-151.69,-82.44,356.44,-7.31,4.94,-0.19,0.12,0.00,-0.11,-17.12,-61.06,4.69,0.31,-0.13,1.56,2,3
1772652244.465188,712348,-0.08,0.08,0.05,-152.37,-82.25,356.19,-5.44,5.12,-1.06,0.12,0.00,-0.13,-17.25,-61.06,4.62,0.13,-0.19,1.12,2,3
1772652244.505377,712388,-0.06,0.07,0.00,-153.31,-82.12,356.06,-3.12,5.37,-1.69,0.10,0.00,-0.09,-17.31,-61.06,4.62,0.00,-0.69,0.88,2,4
1772652244.545485,712428,0.11,0.01,-0.09,-154.25,-81.94,356.00,-1.31,6.25,-0.94,0.12,0.00,0.01,-17.31,-61.00,4.56,0.25,-0.44,0.13,2,3
1772652244.586107,712469,-0.04,0.01,-0.08,-154.87,-81.75,355.94,-0.88,4.69,-0.25,0.11,-0.10,-0.08,-17.37,-61.00,4.62,0.37,0.62,0.13,3,3
1772652244.626552,712509,0.10,-0.08,-0.07,-155.37,-81.56,355.94,-0.69,3.81,-0.25,0.09,-0.10,-0.11,-17.37,-61.00,4.62,0.13,-0.62,0.00,3,3
1772652244.666680,712550,0.12,0.00,-0.07,-155.50,-81.50,355.81,-1.87,1.87,0.75,0.11,-0.11,-0.13,-17.31,-61.00,4.62,-0.06,-0.50,0.44,2,4
1772652244.707229,712590,0.02,0.00,0.00,-155.50,-81.44,355.75,-2.19,0.81,0.13,0.13,-0.08,-0.12,-17.31,-61.00,4.62,-0.19,-0.31,0.56,2,3
1772652244.746847,712630,-0.09,0.04,0.00,-155.50,-81.44,355.62,-2.37,0.75,0.13,0.10,-0.06,-0.08,-17.31,-61.00,4.62,-0.19,0.06,0.44,2,4
1772652244.787242,712670,-0.09,0.05,0.02,-155.56,-81.37,355.50,-1.81,1.56,0.19,0.14,-0.01,-0.10,-17.31,-61.00,4.62,-0.25,-0.13,0.50,2,3
1772652244.827512,712710,-0.07,0.06,0.00,-155.75,-81.25,355.44,-0.81,3.12,-0.37,0.12,-0.01,-0.12,-17.31,-61.00,4.62,0.00,0.06,0.50,2,3
1772652244.867873,712751,0.06,0.02,-0.02,-156.19,-81.12,355.44,-0.37,3.12,-0.31,0.14,-0.04,-0.12,-17.31,-61.00,4.62,0.50,0.13,0.00,2,3
1772652244.908319,712791,0.03,0.04,0.01,-156.44,-81.06,355.44,-0.06,1.87,-0.44,0.11,-0.02,-0.06,-17.31,-61.00,4.62,0.88,0.19,0.06,2,2
1772652244.948531,712831,0.04,0.03,-0.03,-156.81,-81.00,355.50,0.50,1.25,-1.19,0.12,-0.02,-0.12,-17.37,-61.00,4.62,0.31,-0.31,0.00,2,5
1772652244.988407,712871,-0.02,-0.03,-0.04,-157.25,-81.00,355.56,1.06,1.00,-1.12,0.12,0.00,-0.08,-17.37,-61.00,4.62,0.06,-0.31,-0.19,2,7
1772652245.028833,712912,0.04,-0.04,-0.06,-157.50,-80.94,355.62,1.37,1.87,-0.31,0.14,-0.05,-0.12,-17.37,-61.00,4.62,-0.06,-0.06,0.06,1,7
1772652245.069567,712952,0.02,-0.06,-0.05,-157.62,-80.87,355.69,0.37,0.56,-0.25,0.12,-0.10,-0.16,-17.37,-61.00,4.62,-0.37,0.19,0.13,2,7
1772652245.111510,712994,0.06,-0.09,-0.02,-157.62,-80.87,355.62,-0.88,0.19,0.50,0.09,0.00,-0.05,-17.31,-61.00,4.62,0.13,0.25,-0.56,2,6
1772652245.155673,713038,0.04,-0.02,-0.02,-157.44,-80.87,355.56,-1.06,-0.62,1.06,0.13,-0.02,-0.10,-17.31,-61.06,4.62,-0.13,-0.06,-0.56,3,8
1772652245.195670,713078,0.05,0.01,-0.02,-157.06,-80.87,355.50,-0.50,-1.56,1.19,0.13,-0.03,-0.03,-17.31,-61.06,4.62,-0.13,-0.25,-0.44,3,8
1772652245.237749,713120,-0.25,0.05,0.05,-156.69,-80.94,355.44,-0.50,-1.69,0.37,0.16,-0.08,-0.06,-17.31,-61.06,4.62,-0.13,-0.13,-0.13,2,8
1772652245.278315,713161,0.02,0.05,0.00,-156.37,-81.00,355.44,-0.31,-1.56,0.25,0.12,-0.08,-0.15,-17.31,-61.06,4.62,-0.06,0.31,-0.37,3,8
1772652245.318867,713202,0.01,-0.01,0.00,-156.25,-81.06,355.44,0.50,-1.75,-0.37,0.11,-0.08,-0.12,-17.31,-61.06,4.62,-0.31,-0.19,-0.06,3,8
1772652245.359073,713242,0.00,0.00,0.04,-156.06,-81.12,355.44,0.13,-1.56,0.25,0.15,-0.10,-0.09,-17.31,-61.06,4.62,-0.19,-0.06,-0.13,2,6
1772652245.399157,713282,0.10,0.03,0.00,-155.94,-81.12,355.44,-0.69,-1.19,0.25,0.11,-0.06,-0.14,-17.31,-61.06,4.62,0.31,0.31,-0.50,3,5
1772652245.439591,713322,0.07,0.08,-0.03,-155.56,-81.25,355.44,0.19,-4.44,-0.56,0.10,-0.01,-0.09,-17.31,-61.06,4.62,-0.37,0.00,0.31,3,5
1772652245.479978,713363,-0.03,0.08,0.01,-155.19,-81.44,355.50,1.31,-4.69,-0.56,0.10,-0.03,-0.08,-17.31,-61.06,4.62,0.00,0.06,-0.19,3,5
1772652245.520558,713403,0.01,0.10,-0.01,-154.87,-81.62,355.62,3.12,-4.44,-0.94,0.15,-0.03,-0.09,-17.31,-61.06,4.62,-0.13,0.06,-0.25,2,6
1772652245.560697,713444,0.00,0.00,-0.02,-154.56,-81.81,355.87,5.81,-4.94,-0.19,0.10,-0.09,-0.08,-17.31,-61.06,4.62,0.13,0.19,-0.56,2,4
1772652245.600743,713483,-0.05,0.03,-0.01,-154.25,-81.94,356.19,6.31,-4.94,0.13,0.09,-0.06,-0.08,-17.31,-61.06,4.62,0.44,-0.06,-0.13,2,5
1772652245.640641,713524,-0.04,-0.01,-0.04,-154.00,-82.12,356.44,6.50,-4.19,0.56,0.10,-0.03,-0.12,-17.31,-61.06,4.62,0.25,-0.31,0.00,2,5
1772652245.681271,713564,-0.04,-0.03,-0.02,-153.75,-82.25,356.75,5.50,-3.12,0.31,0.11,-0.03,-0.04,-17.31,-61.06,4.62,0.44,0.00,-0.37,2,5
1772652245.721782,713604,0.00,-0.01,-0.06,-153.62,-82.31,356.94,4.19,-2.25,-0.56,0.10,-0.06,-0.13,-17.31,-61.06,4.69,0.37,0.31,-0.50,2,6
1772652245.762219,713645,-0.02,0.01,-0.03,-153.75,-82.44,357.12,3.12,-2.12,-1.06,0.10,-0.11,-0.18,-17.31,-61.13,4.69,0.81,0.94,-0.69,3,6
1772652245.801552,713684,0.00,0.00,-0.02,-153.94,-82.50,357.31,2.75,-1.44,-1.00,0.10,-0.11,-0.13,-17.31,-61.13,4.69,0.19,0.75,-0.75,3,6
1772652245.841490,713724,0.02,-0.07,0.00,-154.00,-82.56,357.50,2.69,-1.62,-0.50,0.07,-0.05,-0.11,-17.25,-61.13,4.75,-0.69,0.00,-0.62,3,7
1772652245.882368,713765,-0.11,-0.05,0.00,-153.94,-82.62,357.56,1.87,-1.50,-0.19,0.11,-0.08,-0.18,-17.25,-61.13,4.69,0.13,0.25,-0.19,3,7
1772652245.922851,713806,-0.01,-0.01,-0.01,-153.75,-82.62,357.62,0.81,-0.94,0.75,0.08,-0.09,-0.15,-17.25,-61.13,4.69,0.44,0.13,0.19,3,7
1772652245.964399,713847,-0.03,0.04,-0.01,-153.56,-82.62,357.62,0.06,-0.75,-0.06,0.10,-0.04,-0.14,-17.31,-61.13,4.69,-0.37,-0.37,0.88,4,6
1772652246.007553,713890,-0.04,-0.01,0.02,-153.50,-82.69,357.62,0.06,-0.44,-0.44,0.11,-0.05,-0.18,-17.31,-61.13,4.69,0.06,-0.37,0.13,3,6
1772652246.048177,713931,-0.06,-0.02,0.03,-153.50,-82.69,357.62,0.13,0.19,0.37,0.08,-0.12,-0.16,-17.31,-61.13,4.69,0.19,-0.37,0.56,4,7
1772652246.091248,713974,0.01,-0.03,-0.01,-153.50,-82.69,357.62,-0.81,0.88,0.94,0.12,-0.03,-0.13,-17.37,-61.13,4.62,-0.31,-1.06,0.62,4,7
1772652246.131853,714015,-0.37,0.07,0.02,-153.25,-82.56,357.50,-1.25,1.19,0.69,0.07,-0.09,-0.11,-17.31,-61.06,4.69,0.31,-1.00,0.56,3,7
1772652246.172453,714055,-0.01,0.00,-0.01,-153.12,-82.50,357.37,-1.69,2.19,1.12,0.15,-0.07,-0.18,-17.37,-61.06,4.62,0.13,-0.19,0.44,2,7
1772652246.212078,714095,0.04,0.01,0.01,-153.25,-82.37,357.25,-1.87,2.81,0.62,0.12,-0.07,-0.14,-17.31,-61.00,4.62,-1.50,-0.37,0.25,2,6
1772652246.252786,714136,0.07,-0.10,-0.02,-153.44,-82.25,357.12,-2.31,4.12,0.94,0.10,-0.05,-0.12,-17.25,-61.00,4.62,-0.37,-0.75,0.31,2,6
1772652246.292915,714176,-0.09,0.03,-0.04,-153.37,-82.12,356.94,-3.50,3.06,1.25,0.08,-0.10,-0.10,-17.25,-61.00,4.62,0.75,-0.37,0.44,2,6
1772652246.333565,714216,0.04,0.05,-0.04,-153.25,-82.00,356.69,-3.75,3.06,1.37,0.12,-0.06,-0.11,-17.25,-61.00,4.62,0.37,-0.19,0.75,2,6
1772652246.373874,714257,0.00,0.05,-0.05,-153.25,-81.87,356.50,-3.69,2.75,0.75,0.09,-0.01,-0.10,-17.31,-61.00,4.56,0.50,0.31,0.75,1,6
1772652246.414419,714298,0.03,0.05,-0.05,-153.44,-81.75,356.31,-3.37,2.19,-0.37,0.12,0.00,-0.10,-17.37,-60.94,4.56,0.37,0.25,0.37,1,6
1772652246.454342,714337,-0.02,0.04,-0.03,-153.69,-81.69,356.19,-2.31,3.00,-0.69,0.10,-0.09,-0.09,-17.37,-60.94,4.56,0.06,0.13,0.62,2,6
1772652246.494654,714377,0.02,-0.01,-0.05,-154.00,-81.62,356.12,-1.50,1.12,-0.56,0.09,-0.06,-0.11,-17.37,-60.94,4.56,-0.31,0.25,0.50,2,5
1772652246.534909,714418,0.00,0.00,-0.05,-154.06,-81.62,356.06,-1.62,1.19,-0.13,0.09,-0.03,-0.06,-17.37,-60.94,4.56,-0.06,0.00,0.37,2,5
1772652246.575734,714459,0.00,0.00,-0.04,-154.12,-81.56,356.00,-2.31,1.06,-0.13,0.11,-0.03,-0.07,-17.37,-60.94,4.56,0.00,-0.44,0.44,2,5
1772652246.618413,714501,-0.02,0.01,-0.05,-154.12,-81.50,355.81,-3.06,0.94,0.62,0.08,-0.02,-0.09,-17.44,-60.94,4.56,0.94,0.06,0.13,2,5
1772652246.658037,714541,-0.01,0.02,-0.02,-154.06,-81.50,355.69,-2.31,1.62,-0.19,0.07,-0.08,-0.05,-17.44,-60.94,4.56,0.00,-0.44,0.44,2,5
1772652246.696682,714580,0.01,0.01,0.00,-154.06,-81.44,355.56,-3.00,0.81,0.81,0.11,-0.12,-0.10,-17.44,-60.94,4.56,0.37,0.00,0.37,2,5
1772652246.740736,714624,0.03,0.02,-0.01,-153.94,-81.37,355.44,-3.06,1.62,0.62,0.13,-0.12,-0.12,-17.44,-61.00,4.56,0.50,0.81,0.37,2,5
1772652246.783575,714666,-0.01,0.06,-0.04,-153.87,-81.31,355.25,-3.37,1.00,0.25,0.05,-0.06,-0.14,-17.50,-61.00,4.50,-0.25,0.31,0.81,2,4
1772652246.824634,714707,0.00,0.04,-0.05,-153.94,-81.31,355.06,-2.94,0.69,-0.94,0.10,-0.05,-0.10,-17.56,-61.00,4.50,0.06,-0.06,0.88,2,4
1772652246.865227,714748,-0.05,0.08,-0.02,-154.06,-81.31,355.00,-2.44,0.56,-1.12,0.10,-0.04,-0.12,-17.62,-60.94,4.44,0.69,-0.13,0.94,1,3
1772652246.905363,714788,-0.01,0.04,0.00,-154.44,-81.31,355.00,-1.50,1.31,-1.50,0.09,-0.02,-0.12,-17.69,-60.94,4.44,1.25,0.19,0.44,1,3
1772652246.945862,714829,-0.01,0.06,-0.01,-154.94,-81.25,355.00,-0.56,1.06,-1.56,0.10,-0.04,-0.13,-17.75,-60.94,4.50,1.31,0.31,0.44,1,3
1772652246.986309,714869,-0.01,0.03,0.00,-155.50,-81.25,355.06,0.62,1.31,-1.81,0.15,0.01,-0.09,-17.81,-60.94,4.50,1.31,0.56,0.69,1,4
1772652247.027085,714910,0.05,0.01,-0.06,-156.12,-81.25,355.19,1.44,1.00,-2.12,0.10,-0.03,-0.20,-17.87,-60.94,4.50,0.75,0.56,0.19,1,4
1772652247.068017,714951,0.03,0.00,-0.06,-156.69,-81.25,355.31,1.94,0.37,-1.87,0.10,-0.04,-0.16,-17.94,-60.94,4.50,0.44,0.13,0.06,1,4
1772652247.107478,714990,0.04,-0.08,-0.04,-157.06,-81.25,355.50,1.69,-0.13,-1.19,0.11,-0.04,-0.17,-17.94,-60.94,4.56,0.81,0.06,0.13,1,5
1772652247.147389,715030,0.00,-0.07,0.00,-157.31,-81.31,355.56,0.88,-0.94,-0.69,0.12,-0.04,-0.11,-18.00,-60.94,4.56,0.44,-0.44,0.31,0,5
1772652247.188332,715071,0.06,-0.09,-0.07,-157.31,-81.31,355.56,-0.56,0.13,-0.31,0.11,-0.01,-0.08,-18.00,-60.94,4.56,0.00,0.00,0.37,1,5
1772652247.230968,715114,0.00,0.00,-0.06,-157.31,-81.31,355.56,-1.06,0.69,-0.19,0.12,-0.01,-0.15,-18.00,-60.94,4.56,-0.13,-0.06,0.19,1,4
1772652247.274504,715157,-0.02,0.01,-0.06,-157.31,-81.31,355.50,-0.94,1.19,0.44,0.11,-0.01,-0.10,-18.00,-60.94,4.56,0.19,0.37,-0.31,1,4
1772652247.315967,715199,0.00,0.04,-0.07,-157.37,-81.25,355.44,-0.25,0.88,0.13,0.06,0.00,-0.15,-18.00,-61.00,4.56,0.00,0.56,-0.44,1,4
1772652247.356506,715239,0.04,-0.07,-0.02,-157.44,-81.25,355.44,-0.19,0.31,0.37,0.11,-0.04,-0.14,-18.00,-61.00,4.56,-0.62,0.00,-0.37,1,4
1772652247.397528,715280,0.04,-0.02,-0.02,-157.37,-81.25,355.44,-1.37,0.19,0.31,0.12,-0.05,-0.19,-17.94,-61.00,4.50,-0.69,0.13,-0.19,1,4
1772652247.438336,715321,0.04,-0.04,-0.04,-157.19,-81.25,355.31,-2.56,0.00,0.69,0.06,-0.05,-0.16,-17.94,-61.00,4.50,-1.00,0.06,-0.25,1,4
1772652247.479081,715362,0.01,0.04,-0.05,-157.06,-81.25,355.19,-3.12,-0.50,0.13,0.07,-0.04,-0.16,-17.87,-61.00,4.50,-0.88,-0.13,-0.06,2,3
1772652247.520569,715403,0.00,0.06,0.00,-156.87,-81.25,355.06,-3.25,-0.62,0.25,0.11,-0.05,-0.14,-17.87,-61.00,4.44,-0.44,0.06,-0.13,2,2
1772652247.559538,715442,0.04,0.05,-0.01,-156.81,-81.25,354.94,-1.69,0.00,0.00,0.12,-0.02,-0.13,-17.81,-61.00,4.44,-0.56,0.13,-0.06,2,1
1772652247.599446,715482,0.01,0.07,-0.01,-156.69,-81.25,354.87,-1.06,0.00,0.75,0.09,-0.03,-0.05,-17.81,-61.00,4.44,-0.56,-0.31,-0.37,2,1
1772652247.640643,715524,-0.02,0.05,-0.02,-156.44,-81.25,354.81,-0.25,0.00,0.75,0.11,-0.04,-0.16,-17.81,-61.00,4.44,-0.37,0.13,-0.31,3,2
1772652247.684060,715567,-0.02,0.03,-0.03,-156.37,-81.25,354.81,-0.31,0.13,0.37,0.09,-0.04,-0.16,-17.81,-61.00,4.44,-0.06,-0.13,-0.50,3,2
1772652247.727275,715610,0.07,0.03,-0.08,-156.44,-81.25,354.81,0.00,0.75,0.19,0.09,-0.06,-0.12,-17.81,-61.00,4.44,-0.25,-0.06,0.00,3,2
1772652247.768555,715651,0.03,0.04,-0.07,-156.44,-81.19,354.81,-0.31,-0.44,0.13,0.09,-0.10,-0.12,-17.81,-61.00,4.44,-0.19,-0.06,-0.31,3,3
1772652247.809381,715692,0.04,0.05,-0.01,-156.44,-81.25,354.81,-0.19,-0.50,0.50,0.11,-0.06,-0.14,-17.81,-61.00,4.44,0.13,0.19,-0.37,3,4
1772652247.849875,715733,0.06,0.02,-0.05,-156.37,-81.25,354.81,-0.13,-0.62,0.44,0.11,-0.04,-0.13,-17.81,-61.00,4.44,-0.31,0.00,-0.25,3,4
1772652247.890841,715774,-0.01,0.05,-0.06,-156.25,-81.31,354.81,-0.56,-1.62,0.19,0.10,-0.14,-0.19,-17.81,-61.00,4.44,0.00,0.50,-0.25,3,4
1772652247.932619,715815,-0.01,0.04,-0.04,-156.06,-81.31,354.81,-0.75,-1.44,-0.06,0.11,-0.06,-0.15,-17.81,-61.00,4.44,0.06,0.00,-0.13,3,5
1772652247.975505,715858,-0.03,0.10,0.00,-155.87,-81.37,354.75,-0.44,-1.62,0.31,0.06,-0.03,-0.10,-17.81,-61.00,4.44,-0.25,-0.06,0.50,3,6
1772652248.018175,715901,-0.17,0.06,0.04,-155.75,-81.44,354.75,-0.13,-0.50,0.00,0.10,-0.10,-0.14,-17.81,-61.00,4.44,-0.06,-0.50,-0.13,3,6
1772652248.058244,715941,-0.02,0.03,0.01,-155.69,-81.44,354.75,-0.06,-0.81,0.25,0.11,-0.08,-0.15,-17.81,-61.00,4.44,-0.13,-0.31,0.06,3,5
1772652248.099606,715983,0.02,0.03,-0.05,-155.69,-81.44,354.81,-0.25,0.19,0.44,0.09,-0.10,-0.14,-17.81,-61.00,4.44,-0.13,-0.19,0.00,2,5
1772652248.140548,716024,0.00,0.08,-0.05,-155.69,-81.44,354.75,-0.56,-0.44,0.31,0.10,-0.08,-0.13,-17.81,-61.00,4.44,0.06,-0.31,0.13,2,6
1772652248.181815,716065,0.00,0.06,-0.05,-155.62,-81.44,354.75,-0.44,-0.25,0.44,0.12,-0.06,-0.17,-17.81,-61.00,4.44,-0.19,-0.44,0.25,2,5
1772652248.222788,716106,-0.02,0.05,-0.02,-155.62,-81.44,354.75,-0.13,0.25,-0.25,0.12,-0.05,-0.13,-17.81,-61.00,4.44,0.00,0.37,-0.19,2,4
1772652248.264431,716148,0.02,0.04,-0.02,-155.62,-81.44,354.75,0.06,0.00,0.37,0.06,-0.10,-0.14,-17.81,-61.00,4.44,0.25,0.19,-0.56,2,4
1772652248.305043,716188,0.03,0.06,-0.04,-155.62,-81.44,354.75,0.19,-0.37,0.37,0.09,-0.04,-0.11,-17.81,-61.00,4.44,0.00,-0.50,-0.06,2,3
1772652248.348454,716231,0.00,0.06,-0.04,-155.62,-81.50,354.75,0.13,-0.13,0.25,0.09,-0.10,-0.16,-17.81,-61.00,4.44,0.13,-0.06,0.13,2,4
1772652248.390525,716273,-0.01,0.05,-0.03,-155.62,-81.50,354.75,-0.50,0.00,-0.13,0.07,-0.06,-0.11,-17.81,-61.00,4.44,-0.06,-0.25,0.06,1,3
1772652248.431598,716315,-0.04,0.06,-0.03,-155.62,-81.50,354.75,-0.19,-0.44,0.25,0.07,-0.06,-0.10,-17.81,-61.00,4.44,0.13,0.37,-0.19,1,3
1772652248.472609,716356,0.05,0.05,-0.07,-155.62,-81.50,354.75,0.44,0.00,0.50,0.07,-0.07,-0.16,-17.81,-61.00,4.44,0.06,0.37,-0.19,2,4
1772652248.514041,716397,0.05,0.06,-0.07,-155.56,-81.50,354.75,-0.25,-0.81,0.06,0.09,-0.09,-0.13,-17.81,-61.00,4.44,0.00,-0.06,0.00,2,4
1772652248.553488,716437,0.12,0.08,-0.04,-155.44,-81.56,354.75,-0.56,-1.44,-0.25,0.09,-0.12,-0.13,-17.81,-61.00,4.44,0.69,0.31,0.25,2,4
1772652248.594647,716478,0.00,0.14,0.00,-155.12,-81.62,354.75,0.88,-2.37,-0.50,0.12,-0.07,-0.09,-17.81,-61.00,4.44,0.00,0.00,0.00,2,5
1772652248.637761,716521,-0.04,0.12,0.00,-154.81,-81.75,354.81,1.44,-3.37,-0.37,0.08,-0.02,-0.13,-17.81,-61.00,4.44,0.25,0.31,-0.06,2,5
1772652248.680854,716564,-0.02,0.09,-0.01,-154.87,-81.87,354.94,2.87,-1.87,-0.69,0.09,-0.08,-0.10,-17.81,-61.00,4.44,0.75,0.44,-0.50,2,5
1772652248.722228,716605,0.15,0.11,-0.08,-154.81,-81.94,355.12,3.50,-1.44,-0.44,0.15,-0.13,-0.17,-17.87,-61.00,4.44,0.69,0.62,-0.44,2,5
1772652248.761163,716644,-0.09,0.12,0.09,-154.75,-82.00,355.37,6.12,-1.75,-0.44,0.04,-0.15,-0.27,-17.87,-61.00,4.44,-0.88,0.50,0.06,2,5
1772652248.802774,716686,0.12,0.01,-0.08,-154.69,-82.12,355.69,6.75,-3.87,-0.13,0.04,-0.08,-0.25,-17.81,-61.00,4.44,-1.06,-0.69,0.50,2,5
1772652248.843636,716727,0.00,-0.05,-0.05,-154.19,-82.31,355.94,5.56,-5.69,1.06,0.13,-0.03,-0.04,-17.75,-61.00,4.44,0.06,-0.44,-0.13,2,5
1772652248.884745,716767,-0.10,0.08,-0.03,-153.31,-82.44,356.12,4.87,-4.94,1.19,0.09,-0.06,-0.13,-17.75,-61.00,4.44,0.50,-0.06,-0.50,2,4
1772652248.925838,716809,-0.10,0.01,0.02,-152.75,-82.56,356.31,5.44,-2.12,1.19,0.09,-0.02,-0.12,-17.75,-61.00,4.44,0.37,-0.06,-0.44,2,3
1772652248.965225,716848,-0.06,0.00,0.02,-152.56,-82.56,356.50,4.00,-1.31,0.50,0.12,-0.05,-0.13,-17.75,-61.00,4.44,0.25,-0.37,-0.44,2,3
1772652249.005310,716888,-0.07,0.01,0.02,-152.69,-82.62,356.62,2.56,0.06,-0.69,0.09,-0.09,-0.14,-17.75,-61.06,4.50,0.06,-0.25,-0.62,2,3
1772652249.047342,716930,-0.09,-0.10,-0.03,-153.06,-82.56,356.75,0.94,1.37,-0.69,0.09,-0.02,-0.05,-17.69,-61.06,4.50,-0.31,-0.19,-0.81,2,3
1772652249.089434,716972,-0.02,-0.06,-0.03,-153.44,-82.50,356.75,-1.69,3.81,0.25,0.09,-0.14,-0.13,-17.62,-61.06,4.50,-0.06,0.00,-0.31,2,3
1772652249.131746,717015,0.07,-0.03,-0.09,-153.87,-82.37,356.62,-3.25,4.31,0.62,0.08,-0.12,-0.16,-17.62,-61.06,4.50,-0.06,0.25,-0.19,3,2
1772652249.173657,717056,0.04,0.04,-0.06,-154.12,-82.19,356.37,-4.87,3.31,0.13,0.07,-0.10,-0.19,-17.62,-61.06,4.56,-0.37,-0.75,0.31,3,2
1772652249.214277,717097,-0.03,0.09,-0.01,-154.31,-82.12,356.12,-5.19,2.37,-0.31,0.08,-0.09,-0.19,-17.62,-61.06,4.56,-0.13,-1.19,-0.06,3,2
1772652249.255340,717138,-0.01,0.07,0.01,-154.50,-82.00,355.94,-3.06,2.69,-0.37,0.14,-0.05,-0.15,-17.56,-61.00,4.50,-0.88,-2.81,0.62,3,3
1772652249.296044,717179,-0.12,0.13,-0.03,-154.56,-81.87,355.81,-2.00,3.19,1.37,0.07,-0.07,0.09,-17.56,-60.94,4.50,1.31,-1.56,0.31,3,4
1772652249.337160,717220,-0.07,0.09,-0.11,-154.50,-81.69,355.69,-0.37,4.44,1.87,0.14,-0.11,-0.07,-17.56,-60.88,4.56,0.62,-0.06,0.13,3,4
1772652249.378346,717261,0.11,0.04,-0.16,-154.75,-81.50,355.62,-0.44,5.75,1.12,0.14,-0.07,-0.13,-17.56,-60.88,4.56,-0.94,0.37,0.56,3,5
1772652249.417374,717300,0.29,0.00,-0.14,-155.19,-81.31,355.56,-1.31,4.37,-0.25,0.10,-0.05,-0.20,-17.56,-60.94,4.50,-1.12,0.88,0.50,3,4
1772652249.457331,717340,0.18,0.04,-0.13,-155.37,-81.25,355.44,-2.81,0.88,-0.37,0.04,-0.03,-0.19,-17.56,-60.94,4.50,0.31,0.50,-0.19,3,4
1772652249.499226,717382,-0.06,0.07,-0.01,-155.31,-81.25,355.37,-2.25,-0.88,-0.88,0.08,-0.11,-0.13,-17.50,-61.00,4.50,0.56,0.31,-0.75,3,5
1772652249.541533,717424,-0.03,0.06,0.00,-155.37,-81.31,355.31,-0.44,0.06,-0.19,0.13,-0.05,-0.11,-17.50,-61.00,4.50,-0.81,-0.06,0.19,2,6
1772652249.583867,717467,-0.04,-0.01,-0.07,-155.37,-81.31,355.31,-0.06,0.25,0.56,0.11,-0.12,-0.16,-17.50,-61.00,4.50,-0.81,0.56,-0.37,2,6
1772652249.625218,717508,0.14,0.04,-0.06,-155.19,-81.25,355.25,-0.94,1.25,1.50,0.11,-0.04,-0.14,-17.44,-61.00,4.50,-0.19,0.13,-0.31,2,7
1772652249.664843,717548,0.32,0.01,-0.06,-154.94,-81.19,355.12,-1.44,0.62,0.88,0.10,0.00,0.00,-17.44,-61.00,4.50,-0.44,-0.81,-0.06,2,6
1772652249.706686,717589,0.03,0.03,-0.06,-154.87,-81.12,355.06,-0.94,2.50,0.94,0.12,-0.05,-0.06,-17.44,-61.00,4.50,-0.31,-0.50,-0.19,2,6
1772652249.747869,717631,0.11,0.06,-0.08,-154.87,-81.00,355.00,-0.44,2.12,1.12,0.08,-0.07,-0.09,-17.44,-61.00,4.50,-0.56,-0.06,-0.31,2,7
1772652249.789153,717672,0.11,0.00,-0.07,-154.87,-80.94,354.94,-0.31,0.88,0.50,0.06,-0.13,-0.16,-17.44,-61.00,4.50,-0.13,-0.19,-0.37,3,6
1772652249.831320,717714,0.06,0.04,-0.04,-154.81,-80.94,354.94,-1.06,-0.50,0.50,0.08,-0.11,-0.09,-17.44,-61.00,4.50,-0.37,-0.19,0.00,3,7
1772652249.873823,717757,0.05,0.04,-0.05,-154.75,-81.00,354.87,-0.88,-0.75,0.06,0.11,-0.05,-0.11,-17.37,-61.00,4.50,-0.88,-0.13,0.44,3,7
1772652249.913227,717796,-0.01,0.03,-0.01,-154.56,-81.00,354.81,-1.37,-0.44,0.00,0.11,-0.11,-0.12,-17.37,-61.00,4.50,-0.25,0.56,-0.13,3,7
1772652249.955941,717839,-0.05,0.10,-0.01,-154.50,-81.00,354.75,-1.12,-0.50,0.56,0.08,-0.07,-0.09,-17.37,-61.00,4.50,0.31,0.50,-0.56,3,7
1772652249.997492,717880,0.02,0.03,-0.03,-154.50,-81.00,354.75,0.62,0.13,0.19,0.11,-0.05,-0.12,-17.37,-61.00,4.50,-0.56,-0.06,-0.13,3,8
1772652250.038863,717922,0.03,0.00,-0.06,-154.44,-81.00,354.75,0.31,0.00,0.62,0.14,-0.12,-0.10,-17.37,-61.00,4.50,-0.37,-0.50,-0.25,3,8
1772652250.080239,717963,0.05,0.05,-0.06,-154.31,-81.00,354.75,-0.37,-1.00,0.56,0.13,-0.12,-0.12,-17.37,-61.00,4.50,-0.06,-0.06,-0.37,3,8
1772652250.119906,718003,0.16,0.12,-0.12,-154.06,-81.06,354.75,0.06,-1.31,0.44,0.07,-0.13,-0.12,-17.37,-61.00,4.50,0.00,-0.06,-0.19,3,8
1772652250.159862,718043,0.00,0.12,-0.04,-153.75,-81.19,354.75,1.37,-3.12,0.31,0.11,-0.09,-0.09,-17.37,-61.00,4.50,0.13,0.13,-0.37,4,9
1772652250.200678,718084,0.00,0.22,-0.04,-153.50,-81.25,354.87,2.94,-2.75,0.00,0.09,-0.10,-0.15,-17.37,-61.00,4.50,0.13,0.44,0.00,3,8
1772652250.243080,718126,0.02,0.13,-0.01,-153.25,-81.37,355.06,5.69,-3.37,-0.56,0.09,-0.09,-0.07,-17.37,-61.00,4.50,0.13,0.37,-0.37,3,7
1772652250.285673,718168,0.07,0.03,-0.02,-153.00,-81.50,355.37,6.69,-4.87,-0.56,0.10,-0.11,-0.17,-17.37,-61.00,4.50,-0.50,0.75,-0.19,3,8
1772652250.326759,718209,-0.08,-0.04,-0.02,-152.81,-81.69,355.69,6.19,-4.69,-0.94,0.09,-0.11,-0.14,-17.37,-61.00,4.44,-0.81,-0.25,0.37,3,7
1772652250.365908,718249,-0.04,0.01,-0.04,-152.69,-81.87,356.06,4.69,-3.31,-0.56,0.09,-0.08,-0.10,-17.37,-61.00,4.50,0.69,-0.06,-0.06,3,6
1772652250.408281,718291,0.01,0.05,0.00,-152.56,-81.94,356.19,4.06,-2.31,-0.37,0.13,-0.07,-0.05,-17.37,-61.00,4.50,0.88,0.13,-0.37,3,5
1772652250.449710,718332,-0.02,0.01,-0.04,-152.44,-82.00,356.44,4.12,-1.00,-0.37,0.13,-0.11,-0.14,-17.44,-61.00,4.50,0.25,0.31,-0.25,3,6
1772652250.490651,718374,0.01,-0.01,-0.06,-152.50,-82.00,356.56,3.25,-0.88,-0.44,0.07,-0.16,-0.16,-17.44,-61.06,4.50,0.37,0.88,-0.62,3,6
1772652250.532216,718415,0.01,-0.02,-0.06,-152.44,-82.06,356.69,2.25,-1.25,-0.13,0.08,-0.14,-0.12,-17.44,-61.06,4.50,-0.19,-0.06,0.06,3,6
1772652250.573428,718456,-0.03,-0.01,-0.05,-152.31,-82.12,356.75,0.37,-1.25,-0.06,0.10,-0.14,-0.10,-17.44,-61.06,4.50,-0.06,-0.13,0.69,2,6
1772652250.613210,718496,0.01,0.05,-0.01,-152.19,-82.12,356.75,-0.81,-1.06,0.31,0.08,-0.10,-0.12,-17.44,-61.06,4.50,0.75,0.00,0.19,3,6
1772652250.656153,718539,0.17,0.08,-0.06,-152.06,-82.19,356.75,0.37,-1.31,-1.31,0.09,-0.06,-0.10,-17.50,-61.06,4.50,-0.31,-0.31,0.88,2,6
1772652250.698216,718581,0.02,0.04,0.00,-152.31,-82.25,356.81,1.31,-1.12,-0.50,0.08,-0.07,-0.11,-17.50,-61.06,4.50,0.25,0.13,-0.37,3,6
1772652250.740383,718623,-0.03,-0.02,-0.06,-152.37,-82.25,356.94,1.81,-0.37,-0.75,0.08,-0.16,-0.14,-17.50,-61.06,4.50,-0.06,0.19,0.19,2,6
1772652250.781848,718664,-0.03,-0.06,-0.03,-152.44,-82.25,357.00,-0.37,-0.06,-0.37,0.06,-0.09,-0.10,-17.50,-61.06,4.50,-0.06,-0.06,0.19,2,7
1772652250.822942,718706,0.00,0.04,-0.03,-152.37,-82.25,356.94,-1.19,-0.13,-0.50,0.06,-0.10,-0.12,-17.50,-61.06,4.50,0.00,-0.25,0.37,2,7
1772652250.862625,718746,0.00,0.04,-0.01,-152.37,-82.25,356.87,-0.81,0.37,0.13,0.09,-0.09,-0.06,-17.50,-61.06,4.50,0.13,0.06,0.75,1,5
1772652250.904396,718787,0.03,0.05,-0.06,-152.31,-82.25,356.87,-0.56,0.19,-0.37,0.10,-0.13,-0.14,-17.56,-61.00,4.44,0.06,-0.06,0.50,1,5
1772652250.946523,718829,0.03,0.05,-0.06,-152.25,-82.25,356.81,-0.75,-0.13,-0.31,0.05,-0.10,-0.16,-17.56,-61.00,4.44,0.31,-0.56,0.31,1,5
1772652250.988805,718872,0.00,0.02,-0.01,-152.25,-82.25,356.81,-0.31,-0.37,-0.50,0.09,-0.11,-0.10,-17.62,-61.00,4.44,0.37,-0.56,0.75,2,4
1772652251.029947,718913,-0.03,0.00,0.01,-152.25,-82.25,356.81,-1.06,0.19,-0.19,0.10,-0.16,-0.17,-17.62,-61.00,4.44,-0.25,-0.81,0.69,2,3
1772652251.069669,718953,-0.08,-0.01,0.02,-152.19,-82.25,356.75,-1.56,0.25,-0.06,0.08,-0.08,-0.08,-17.62,-60.94,4.37,-0.19,-1.00,0.25,2,3
1772652251.111945,718995,-0.12,-0.02,0.04,-152.31,-82.19,356.62,-1.75,3.37,0.94,0.10,-0.07,-0.04,-17.62,-60.94,4.37,0.06,-0.62,0.31,2,4
1772652251.153220,719036,-0.01,-0.07,-0.02,-152.69,-82.00,356.50,-4.12,4.87,0.06,0.09,-0.11,-0.18,-17.62,-60.94,4.37,-0.44,0.06,0.19,2,4
1772652251.194218,719077,0.02,-0.08,-0.05,-153.37,-81.81,356.25,-6.75,5.56,-1.12,0.08,-0.06,-0.14,-17.56,-60.94,4.37,-0.50,-0.44,0.19,2,3
1772652251.234988,719118,0.08,0.03,-0.02,-154.00,-81.69,355.94,-7.75,4.37,-1.19,0.11,-0.16,-0.18,-17.56,-60.94,4.37,-0.06,-0.31,-0.25,2,3
1772652251.274696,719158,-0.01,0.07,-0.08,-154.19,-81.56,355.62,-6.25,2.69,-0.13,0.09,-0.11,-0.02,-17.56,-60.88,4.37,0.69,-1.06,-0.06,2,3
1772652251.314780,719198,-0.04,0.12,-0.09,-154.00,-81.44,355.37,-3.75,2.87,1.94,0.08,-0.14,-0.02,-17.56,-60.88,4.44,0.69,-0.75,0.13,3,4
1772652251.356662,719240,0.06,0.06,-0.09,-153.75,-81.31,355.19,-1.81,2.37,2.31,0.12,-0.12,-0.10,-17.56,-60.81,4.44,0.25,-0.81,0.25,3,4
1772652251.399454,719282,0.10,0.05,-0.07,-153.44,-81.25,355.00,-1.75,2.00,1.25,0.15,-0.13,-0.14,-17.56,-60.81,4.44,-0.75,-0.37,0.75,2,4
1772652251.441231,719324,0.06,0.02,-0.08,-153.50,-81.19,354.94,-2.31,1.56,-0.19,0.10,-0.08,-0.13,-17.56,-60.81,4.37,-0.94,0.06,0.62,2,4
1772652251.483463,719366,-0.03,0.06,-0.05,-153.56,-81.12,354.81,-1.62,1.19,-0.31,0.09,-0.06,-0.03,-17.56,-60.81,4.37,-0.37,0.13,0.13,3,4
1772652251.523587,719407,0.05,0.02,-0.07,-153.75,-81.06,354.75,-0.31,1.87,0.06,0.11,-0.07,-0.12,-17.56,-60.81,4.37,-0.13,0.81,0.13,3,3
1772652251.564670,719448,0.06,0.00,-0.04,-153.87,-81.00,354.75,0.31,1.00,-0.19,0.10,-0.11,-0.15,-17.56,-60.81,4.37,0.25,0.88,-0.69,3,3
1772652251.606342,719489,0.07,-0.01,-0.05,-153.94,-81.00,354.75,-0.31,0.44,0.06,0.10,-0.12,-0.14,-17.56,-60.81,4.37,-0.44,0.19,-0.37,4,3
1772652251.648448,719531,0.04,0.02,-0.06,-153.94,-81.00,354.75,-0.75,-0.13,0.19,0.07,-0.14,-0.12,-17.56,-60.81,4.37,-0.19,-0.13,0.00,4,3
1772652251.690491,719573,-0.05,0.03,-0.03,-153.75,-81.00,354.69,-0.75,-1.06,0.69,0.10,-0.09,-0.08,-17.56,-60.81,4.37,-0.44,-0.13,-0.19,4,3
1772652251.731608,719615,0.02,-0.01,-0.05,-153.50,-81.00,354.62,-0.94,0.31,0.75,0.10,-0.12,-0.06,-17.56,-60.81,4.37,-1.19,0.19,0.06,3,3
1772652251.770979,719654,-0.25,-0.01,-0.05,-153.25,-81.00,354.56,-1.69,-0.31,0.44,0.11,-0.15,-0.13,-17.50,-60.81,4.31,-1.12,0.44,0.06,3,3
1772652251.812961,719696,0.05,-0.02,-0.06,-153.12,-80.94,354.44,-2.19,0.75,1.25,0.08,-0.10,-0.14,-17.44,-60.81,4.31,-1.25,0.25,0.25,3,3
1772652251.854754,719738,0.00,0.00,-0.04,-152.75,-80.94,354.25,-2.37,-0.06,1.06,0.08,-0.05,-0.11,-17.37,-60.81,4.25,-0.44,0.44,0.13,3,4
1772652251.896231,719779,0.06,0.06,0.00,-152.44,-80.87,354.12,-2.19,-0.37,0.94,0.12,-0.13,-0.20,-17.44,-60.88,4.25,0.75,0.88,-0.13,3,4
1772652251.937577,719821,0.00,0.05,-0.02,-152.31,-80.87,354.00,-0.88,-0.62,0.37,0.09,-0.10,-0.13,-17.44,-60.88,4.31,0.69,0.44,-0.56,3,4
1772652251.979269,719862,-0.04,0.06,0.00,-152.19,-80.94,354.00,0.19,-0.81,-0.50,0.08,-0.19,-0.15,-17.44,-60.88,4.31,0.06,0.37,-0.19,3,4
1772652252.020167,719903,0.00,-0.07,-0.01,-152.37,-80.94,354.12,0.62,-1.19,-0.69,0.11,-0.19,-0.11,-17.44,-60.88,4.31,-0.69,0.06,-0.19,3,4
1772652252.062650,719945,-0.04,-0.04,0.03,-152.25,-81.00,354.06,-1.31,-1.00,0.62,0.09,-0.12,-0.03,-17.37,-60.88,4.25,-1.06,-0.62,-0.37,2,5
1772652252.104710,719988,0.02,-0.01,-0.05,-151.94,-81.00,354.00,-2.19,0.81,1.37,0.06,-0.12,-0.14,-17.37,-60.88,4.25,-0.94,-0.56,0.31,3,6
1772652252.146402,720029,0.10,0.10,-0.06,-151.56,-80.94,353.81,-2.31,-0.69,0.75,0.07,-0.10,-0.09,-17.37,-60.88,4.25,-0.50,-0.56,0.50,3,5
1772652252.187531,720071,0.02,0.17,0.00,-151.31,-81.00,353.75,-0.94,-1.25,0.13,0.10,-0.08,-0.11,-17.37,-60.88,4.25,0.00,-0.56,0.00,2,5
1772652252.228047,720111,0.01,0.12,-0.02,-151.37,-81.06,353.81,2.12,-2.50,-1.19,0.10,-0.10,-0.14,-17.37,-60.88,4.25,0.81,-0.13,-0.25,2,5
1772652252.268395,720151,0.00,0.03,0.03,-151.31,-81.19,353.94,3.62,-2.56,-0.37,0.08,-0.13,-0.02,-17.37,-60.88,4.31,0.88,-0.37,-0.56,2,5
1772652252.310221,720193,-0.06,0.04,-0.01,-151.25,-81.25,354.19,4.31,-2.12,-0.75,0.08,-0.16,-0.06,-17.37,-60.88,4.31,0.06,0.13,-0.06,3,5
1772652252.351821,720235,-0.02,-0.02,-0.10,-151.44,-81.31,354.44,4.69,-0.69,-1.00,0.08,-0.12,-0.13,-17.44,-60.88,4.25,-0.50,0.56,0.81,3,5
1772652252.393679,720277,0.12,-0.06,-0.06,-151.69,-81.31,354.62,2.69,-1.50,-0.31,0.11,-0.12,-0.16,-17.44,-60.88,4.25,0.75,0.44,0.19,2,5
1772652252.433661,720317,-0.03,0.00,0.00,-151.56,-81.44,354.75,1.31,-2.12,-0.88,0.08,-0.11,-0.05,-17.44,-60.88,4.31,0.44,-0.81,0.06,2,6
1772652252.472973,720356,-0.03,0.00,-0.03,-151.56,-81.50,354.87,1.31,-1.75,-0.62,0.08,-0.09,-0.09,-17.44,-60.88,4.31,0.19,-0.31,0.00,2,6
1772652252.514620,720398,0.05,0.02,-0.03,-151.44,-81.56,354.94,1.25,-2.25,0.19,0.09,-0.13,-0.12,-17.50,-60.88,4.31,1.37,0.75,-0.62,2,5
1772652252.556360,720439,-0.03,0.07,0.01,-151.19,-81.62,355.00,2.19,-1.87,0.69,0.06,-0.07,-0.21,-17.50,-60.94,4.37,2.62,1.44,-0.81,2,5
1772652252.598036,720481,0.01,0.07,-0.01,-151.00,-81.69,355.12,3.69,-1.69,-0.31,0.10,-0.14,-0.15,-17.56,-61.00,4.56,3.06,1.06,-2.37,2,4
1772652252.638457,720521,-0.14,-0.01,0.00,-151.06,-81.75,355.37,4.50,-1.19,-1.12,0.08,-0.11,-0.06,-17.50,-61.00,4.69,1.44,0.13,-1.19,3,4
1772652252.678944,720562,-0.06,-0.21,-0.03,-151.50,-81.81,355.56,2.37,0.50,-0.75,0.10,-0.18,-0.04,-17.44,-61.00,4.69,-0.75,0.13,-0.81,3,4
1772652252.720030,720603,-0.04,-0.14,-0.04,-151.56,-81.75,355.56,-1.00,1.56,0.81,0.13,-0.22,-0.08,-17.44,-61.00,4.69,-0.25,-0.19,-0.25,2,4
1772652252.761212,720644,0.03,0.00,-0.05,-151.37,-81.69,355.37,-2.56,1.69,1.87,0.11,-0.15,-0.13,-17.44,-61.00,4.69,-0.19,-0.94,0.44,2,5
1772652252.802812,720686,-0.07,0.03,-0.07,-151.00,-81.62,355.19,-3.06,1.19,1.25,0.10,-0.09,-0.01,-17.44,-60.94,4.62,-1.37,-1.37,1.44,3,4
1772652252.843987,720727,-0.10,-0.01,-0.09,-151.12,-81.50,355.06,-3.25,3.94,-0.13,0.10,-0.05,-0.04,-17.44,-60.88,4.50,-2.81,-0.06,2.37,3,3
1772652252.883155,720766,0.07,0.00,-0.05,-151.50,-81.37,354.87,-3.75,5.00,-0.50,0.08,-0.08,-0.19,-17.50,-60.88,4.37,-2.25,1.31,1.87,3,3
1772652252.922132,720805,0.33,0.06,-0.07,-151.81,-81.19,354.69,-3.31,3.44,0.69,0.02,-0.06,-0.31,-17.56,-60.94,4.31,1.44,1.12,0.88,3,3
1772652252.963894,720847,0.34,0.14,0.02,-151.75,-81.19,354.56,-0.19,-0.88,-0.25,0.06,-0.07,-0.20,-17.69,-60.94,4.37,3.00,-0.37,-0.50,4,2
1772652253.004741,720888,-0.05,0.11,0.07,-151.81,-81.25,354.62,2.87,-1.50,-1.62,0.10,-0.12,-0.14,-17.75,-60.94,4.44,0.50,-1.69,-0.31,4,2
1772652253.045800,720929,-0.19,-0.08,0.01,-152.19,-81.31,354.87,3.31,0.56,-1.94,0.09,-0.20,-0.07,-17.62,-60.94,4.44,-1.56,-1.50,-0.06,4,3
1772652253.085057,720968,-0.09,-0.22,0.01,-152.81,-81.31,355.06,0.31,2.31,-0.62,0.07,-0.18,-0.05,-17.44,-60.88,4.37,-2.50,-0.69,-0.06,4,3
1772652253.124021,721007,0.05,-0.15,-0.05,-153.25,-81.25,355.00,-2.25,2.50,1.12,0.09,-0.18,-0.11,-17.31,-60.88,4.37,-1.87,-0.81,0.19,4,2
1772652253.165585,721049,0.10,0.01,-0.09,-152.94,-81.12,354.75,-4.06,1.37,2.69,0.08,-0.14,-0.10,-17.25,-60.81,4.31,-0.50,-0.62,0.31,4,3
1772652253.206768,721090,0.04,0.18,-0.07,-152.25,-81.00,354.44,-3.06,0.44,2.25,0.09,-0.04,-0.09,-17.19,-60.81,4.37,0.44,-0.75,0.31,4,3
1772652253.248395,721131,0.07,0.19,-0.09,-151.69,-80.94,354.25,-0.94,0.44,0.31,0.13,-0.06,-0.05,-17.19,-60.81,4.37,0.06,-0.81,0.56,4,3
1772652253.289576,721173,-0.03,0.15,-0.06,-151.56,-80.94,354.25,0.81,0.06,-0.81,0.08,-0.04,-0.02,-17.25,-60.81,4.37,1.00,-0.06,0.37,4,4
1772652253.329318,721212,0.03,-0.02,-0.06,-151.94,-80.94,354.37,2.56,0.13,-1.69,0.10,-0.11,-0.08,-17.25,-60.81,4.37,0.31,-0.31,0.13,3,4
1772652253.371127,721254,0.03,-0.06,-0.05,-152.25,-80.94,354.50,2.12,0.19,-0.69,0.13,-0.14,-0.10,-17.19,-60.81,4.37,0.19,-0.62,0.13,2,4
1772652253.412795,721296,0.05,-0.07,-0.09,-152.37,-80.94,354.56,0.75,0.50,-0.37,0.13,-0.16,-0.12,-17.19,-60.81,4.37,-0.25,-0.50,0.56,2,5
1772652253.454728,721337,0.03,-0.02,-0.11,-152.44,-80.94,354.56,-1.31,-0.50,-0.19,0.07,-0.11,-0.11,-17.19,-60.81,4.37,-0.31,-0.62,0.75,2,4
1772652253.495736,721379,-0.01,0.03,-0.03,-152.25,-81.00,354.50,-1.37,-1.12,0.00,0.09,-0.09,-0.03,-17.12,-60.75,4.37,0.19,-0.62,0.44,2,5
1772652253.536431,721420,-0.02,0.04,-0.01,-152.06,-81.06,354.44,-0.19,-1.19,0.06,0.11,-0.03,0.01,-17.12,-60.75,4.37,0.31,-0.13,0.13,1,5
1772652253.576779,721460,-0.03,0.00,-0.02,-151.94,-81.06,354.44,0.69,-0.31,0.25,0.12,-0.10,-0.09,-17.12,-60.75,4.44,0.56,0.37,-0.31,1,5
1772652253.617957,721501,0.00,0.02,-0.04,-152.00,-81.06,354.50,1.00,-0.19,-0.25,0.11,-0.10,-0.13,-17.12,-60.75,4.44,0.06,0.25,-0.13,2,4
1772652253.659203,721542,-0.01,-0.02,-0.06,-152.06,-81.06,354.56,0.44,-0.13,-0.50,0.10,-0.09,-0.12,-17.12,-60.75,4.44,-0.06,0.19,-0.06,2,4
1772652253.700143,721583,0.00,0.00,-0.07,-152.06,-81.06,354.56,0.25,0.00,-0.31,0.07,-0.09,-0.05,-17.12,-60.75,4.44,-0.06,-0.13,0.00,1,4
1772652253.740225,721623,0.00,-0.03,-0.01,-152.06,-81.06,354.56,0.25,-0.25,-0.19,0.12,-0.10,-0.06,-17.12,-60.75,4.44,-0.19,0.19,0.00,1,3
1772652253.779416,721662,0.01,-0.01,-0.04,-152.12,-81.06,354.56,-0.06,0.00,-0.06,0.08,-0.08,-0.08,-17.06,-60.81,4.44,-0.81,-0.06,0.06,1,3
1772652253.821341,721704,0.02,-0.02,-0.03,-152.12,-81.06,354.56,-0.25,-0.88,-0.25,0.10,-0.07,-0.06,-17.06,-60.81,4.44,-0.50,-0.13,0.13,1,4
1772652253.862602,721745,-0.03,-0.01,-0.01,-152.00,-81.12,354.56,-0.44,-1.00,0.44,0.11,-0.09,-0.05,-17.06,-60.81,4.44,-0.37,0.00,-0.19,1,4
1772652253.904216,721787,0.04,-0.03,-0.01,-151.94,-81.06,354.50,-0.37,-0.19,0.75,0.11,-0.08,-0.07,-17.06,-60.81,4.44,-0.37,0.25,-0.25,2,4
1772652253.945200,721828,0.01,0.01,-0.04,-151.62,-81.06,354.50,-0.94,-0.56,1.31,0.07,-0.07,-0.08,-17.06,-60.81,4.44,0.19,0.69,-0.13,1,3
1772652253.986671,721870,-0.02,-0.02,0.00,-151.50,-81.06,354.44,-0.25,-0.37,0.44,0.08,-0.11,-0.09,-17.06,-60.81,4.44,-0.31,0.06,-0.25,2,3
1772652254.026942,721910,0.06,0.01,-0.03,-151.37,-81.06,354.44,-0.62,-0.50,0.94,0.08,-0.10,-0.11,-17.06,-60.81,4.44,0.13,-0.06,-0.56,1,3
1772652254.068595,721951,-0.01,-0.01,0.01,-151.06,-81.12,354.37,0.13,-1.12,0.75,0.09,-0.10,-0.13,-17.06,-60.81,4.44,0.00,-0.25,-0.37,2,3
1772652254.109705,721993,0.00,0.03,-0.02,-150.75,-81.12,354.37,-0.37,-1.25,0.81,0.05,-0.13,-0.15,-17.00,-60.81,4.50,0.75,0.00,-0.81,1,3
1772652254.150942,722034,-0.03,0.01,0.01,-150.44,-81.19,354.31,0.44,-2.00,0.88,0.08,-0.07,-0.06,-17.00,-60.81,4.50,1.00,-0.62,-0.88,2,3
1772652254.191817,722075,-0.08,0.04,0.01,-150.06,-81.19,354.31,1.00,-1.25,0.56,0.13,-0.10,-0.04,-17.00,-60.81,4.56,0.44,-0.56,-0.50,2,3
1772652254.230862,722114,0.00,-0.06,-0.02,-150.06,-81.19,354.44,1.06,0.00,0.06,0.08,-0.12,-0.07,-16.94,-60.81,4.56,-0.25,0.13,-0.56,2,2
1772652254.272892,722156,0.03,-0.03,-0.06,-150.06,-81.19,354.44,-0.06,0.06,0.19,0.08,-0.14,-0.11,-16.94,-60.81,4.56,-0.06,0.06,0.06,3,3
1772652254.314770,722198,0.01,0.05,-0.05,-150.00,-81.19,354.37,-0.88,0.13,0.62,0.07,-0.10,-0.12,-17.00,-60.81,4.56,0.62,-0.06,0.25,2,3
1772652254.356779,722240,0.00,0.05,-0.05,-150.00,-81.19,354.37,0.00,-0.19,-0.19,0.09,-0.06,-0.08,-17.00,-60.81,4.56,-0.25,-0.13,0.50,2,3
1772652254.398900,722282,-0.01,-0.02,-0.07,-150.19,-81.25,354.44,0.94,0.00,-0.88,0.11,-0.08,-0.06,-17.00,-60.81,4.50,-0.81,-0.31,0.69,2,3
1772652254.439637,722322,0.02,0.00,-0.01,-150.31,-81.25,354.44,0.31,-0.19,-0.56,0.10,-0.13,-0.15,-17.00,-60.81,4.50,0.62,0.06,-0.06,3,4
1772652254.478666,722362,0.04,0.03,-0.02,-150.31,-81.25,354.44,0.81,-1.06,0.00,0.12,-0.10,-0.08,-17.06,-60.81,4.56,1.31,0.31,-0.50,3,4
1772652254.520434,722403,-0.01,-0.02,-0.03,-150.19,-81.31,354.50,1.69,-1.19,-0.19,0.09,-0.15,-0.08,-17.06,-60.81,4.56,0.00,0.06,0.25,3,5
1772652254.562401,722445,0.01,-0.06,-0.02,-150.12,-81.31,354.62,0.13,-1.19,-0.75,0.10,-0.09,-0.09,-17.06,-60.81,4.56,-0.44,-0.37,0.37,2,6
1772652254.603357,722486,-0.11,0.04,0.00,-150.00,-81.37,354.56,-0.94,-1.06,-0.37,0.11,-0.08,-0.07,-17.06,-60.81,4.56,0.25,0.06,0.13,2,6
1772652254.644164,722527,0.03,0.00,-0.02,-149.94,-81.37,354.56,0.56,-0.19,0.25,0.10,-0.12,-0.05,-17.06,-60.81,4.56,0.25,0.06,-0.06,2,5
1772652254.683202,722566,0.03,0.01,-0.02,-149.94,-81.44,354.62,1.19,-0.88,0.37,0.08,-0.12,-0.15,-17.06,-60.81,4.56,0.19,0.13,-0.44,2,5
1772652254.725345,722608,0.05,-0.04,-0.03,-149.87,-81.44,354.62,0.88,-0.94,-0.06,0.08,-0.15,-0.12,-17.06,-60.81,4.56,-0.06,-0.13,-0.31,2,5
1772652254.767576,722650,-0.04,0.00,-0.01,-149.69,-81.50,354.69,-0.06,-1.06,-0.56,0.08,-0.16,-0.13,-17.06,-60.81,4.56,-0.13,-0.19,0.00,2,5
1772652254.809444,722692,-0.02,-0.01,-0.02,-149.69,-81.50,354.69,-0.69,-0.44,0.37,0.10,-0.09,-0.07,-17.06,-60.81,4.56,0.69,0.19,-0.25,2,4
1772652254.850808,722734,0.01,0.07,0.02,-149.62,-81.50,354.62,0.50,-0.25,-0.25,0.11,-0.09,-0.05,-17.06,-60.81,4.56,0.31,-0.19,0.19,1,4
1772652254.892164,722775,0.00,-0.02,0.00,-149.81,-81.50,354.69,0.94,0.19,-0.75,0.09,-0.12,-0.08,-17.06,-60.81,4.56,-0.19,-0.13,0.19,1,4
1772652254.932536,722815,-0.01,-0.03,0.02,-150.00,-81.50,354.75,-0.13,-0.06,-1.25,0.09,-0.12,-0.11,-17.06,-60.81,4.56,-0.13,-0.37,0.56,1,3
1772652254.973755,722857,-0.02,-0.04,0.04,-150.31,-81.56,354.81,-0.13,0.50,-1.00,0.06,-0.11,-0.09,-17.12,-60.81,4.50,-1.19,-1.25,1.31,2,2
1772652255.014615,722898,-0.02,-0.05,0.00,-150.50,-81.56,354.81,-1.00,0.69,-0.37,0.10,-0.07,-0.08,-17.12,-60.69,4.44,-0.69,-1.44,1.69,2,3
1772652255.055077,722938,-0.05,0.04,0.00,-150.62,-81.50,354.81,-0.81,1.31,0.31,0.14,-0.11,-0.06,-17.19,-60.69,4.44,0.69,-0.94,0.50,2,3
1772652255.093894,722977,0.00,0.10,0.00,-150.75,-81.37,354.75,0.88,2.81,1.00,0.13,-0.05,-0.02,-17.25,-60.69,4.44,1.31,-0.19,-0.37,2,4
1772652255.133185,723016,0.08,0.00,-0.04,-150.94,-81.31,354.75,2.00,3.12,0.44,0.07,-0.12,-0.12,-17.25,-60.69,4.50,1.19,0.81,-0.62,2,4
1772652255.174774,723058,0.11,-0.05,-0.04,-151.31,-81.25,354.81,1.37,1.87,-0.37,0.07,-0.14,-0.13,-17.25,-60.69,4.50,-0.31,-0.25,-0.50,2,4
1772652255.215537,723098,0.07,-0.13,-0.07,-151.56,-81.19,354.87,-0.62,0.37,0.00,0.09,-0.15,-0.06,-17.19,-60.69,4.50,-1.12,-1.56,0.62,3,4
1772652255.256607,723140,-0.10,0.01,-0.06,-151.31,-81.12,354.75,-2.06,0.13,2.25,0.10,-0.13,0.00,-17.19,-60.63,4.50,1.37,-0.62,0.56,3,3
1772652255.298364,723181,0.00,0.05,-0.02,-150.75,-81.06,354.56,-1.69,1.81,1.81,0.11,-0.11,-0.08,-17.25,-60.63,4.50,0.25,-0.37,0.75,3,3
1772652255.338376,723221,0.12,0.03,-0.05,-150.75,-81.00,354.44,-1.56,1.75,0.31,0.15,-0.09,-0.11,-17.31,-60.63,4.50,-0.37,-0.19,1.06,2,3
1772652255.380318,723263,0.05,0.01,-0.01,-150.94,-80.94,354.37,-1.75,1.37,-0.94,0.10,-0.10,-0.11,-17.37,-60.56,4.44,-0.06,-0.50,0.81,2,2
1772652255.422372,723305,-0.03,0.05,-0.02,-151.25,-80.94,354.37,-0.94,1.12,-1.06,0.07,-0.11,-0.07,-17.37,-60.56,4.44,-0.06,-0.44,0.00,2,2
1772652255.463544,723346,0.04,-0.02,-0.03,-151.44,-80.94,354.37,0.75,0.06,-0.25,0.13,-0.12,0.00,-17.37,-60.56,4.44,-0.25,-0.44,0.44,2,2
1772652255.504354,723387,-0.09,-0.04,-0.04,-151.44,-80.94,354.44,0.44,0.81,0.25,0.13,-0.08,-0.03,-17.44,-60.56,4.37,-0.44,0.00,1.00,1,2
1772652255.543609,723427,0.03,-0.04,-0.06,-151.62,-80.87,354.37,-1.19,1.75,0.31,0.11,-0.09,-0.05,-17.44,-60.56,4.37,0.13,0.44,0.56,2,2
1772652255.583315,723466,0.03,0.05,-0.03,-151.69,-80.81,354.31,-1.87,0.94,0.13,0.11,-0.13,-0.12,-17.50,-60.56,4.37,0.50,-0.06,0.50,2,2
1772652255.624471,723508,0.03,0.07,-0.05,-151.69,-80.81,354.25,0.25,0.50,-0.06,0.08,-0.10,-0.09,-17.50,-60.56,4.37,-0.13,-0.19,0.31,2,3
1772652255.665459,723548,0.16,-0.03,-0.04,-151.75,-80.81,354.25,0.62,-1.44,-0.31,0.11,-0.11,-0.17,-17.50,-60.56,4.37,-0.06,-0.19,0.00,2,4
1772652255.706024,723589,-0.01,-0.08,0.00,-151.69,-80.81,354.31,0.25,0.19,0.62,0.11,-0.14,-0.08,-17.44,-60.56,4.37,-0.75,-0.56,0.31,2,6
1772652255.746176,723629,-0.06,-0.06,0.01,-151.62,-80.81,354.25,-1.87,0.81,0.75,0.15,-0.11,-0.04,-17.44,-60.56,4.37,-0.62,-0.19,-0.13,3,6
1772652255.785309,723668,-0.03,-0.02,-0.01,-151.50,-80.75,354.12,-2.31,2.00,0.75,0.11,-0.12,-0.12,-17.44,-60.56,4.37,-0.81,0.19,-0.25,3,6
1772652255.825875,723709,0.00,0.04,0.00,-151.44,-80.69,353.94,-1.87,1.75,1.31,0.12,-0.11,-0.06,-17.37,-60.56,4.37,-0.37,-0.69,-0.31,3,7
1772652255.866173,723749,0.01,0.07,-0.08,-151.25,-80.56,353.81,-0.81,1.87,2.12,0.11,-0.14,0.05,-17.31,-60.50,4.37,1.25,-0.69,-1.12,3,7
1772652255.907307,723790,-0.02,0.14,-0.07,-150.94,-80.44,353.75,0.44,1.81,2.06,0.08,-0.12,-0.07,-17.31,-60.56,4.44,0.62,0.75,-0.50,3,6
1772652255.946446,723830,0.16,-0.08,-0.09,-150.87,-80.37,353.69,0.62,1.50,0.44,0.11,-0.14,-0.08,-17.31,-60.56,4.44,-0.88,0.19,0.00,3,7
1772652255.985658,723869,0.11,-0.07,-0.05,-151.00,-80.31,353.69,-1.06,0.06,0.00,0.14,-0.15,-0.09,-17.25,-60.56,4.44,-0.81,0.19,-0.06,2,7
1772652256.026759,723910,0.02,0.06,-0.01,-150.87,-80.37,353.62,-1.37,-0.56,0.19,0.11,-0.14,-0.08,-17.25,-60.56,4.44,-0.44,1.00,-0.37,2,6
1772652256.067201,723950,0.01,-0.03,-0.02,-150.87,-80.37,353.56,-0.25,-0.75,0.00,0.07,-0.11,-0.08,-17.19,-60.56,4.37,-1.75,-0.13,0.50,2,4
1772652256.107652,723991,0.01,-0.02,-0.04,-150.75,-80.37,353.56,-1.37,-1.31,0.00,0.09,-0.08,-0.04,-17.19,-60.56,4.37,-0.88,-0.37,0.00,1,3
1772652256.146980,724030,-0.02,0.04,0.01,-150.56,-80.44,353.50,-1.44,-0.75,-0.37,0.12,-0.09,0.03,-17.12,-60.56,4.37,-0.44,-0.50,0.37,1,3
1772652256.187390,724070,0.05,0.01,0.01,-150.50,-80.44,353.44,-0.06,-0.37,0.00,0.13,-0.07,-0.02,-17.12,-60.56,4.37,-0.31,0.06,-0.44,1,3
1772652256.228228,724111,0.02,0.00,-0.06,-150.50,-80.44,353.50,1.00,-0.44,0.00,0.10,-0.09,-0.05,-17.19,-60.56,4.37,-0.44,0.13,-0.13,1,4
1772652256.269332,724152,0.07,-0.07,-0.08,-150.50,-80.44,353.50,0.25,-0.81,-0.50,0.11,-0.14,-0.10,-17.19,-60.56,4.37,-0.37,0.06,0.00,2,4
1772652256.310150,724193,0.00,-0.01,-0.06,-150.37,-80.50,353.50,0.00,-1.37,-0.62,0.11,-0.19,-0.06,-17.19,-60.56,4.37,0.13,0.13,-0.06,2,4
1772652256.350514,724233,0.00,-0.07,-0.04,-150.19,-80.56,353.50,-0.62,-1.75,-0.50,0.09,-0.12,-0.08,-17.12,-60.56,4.31,-0.50,-0.19,-0.31,2,4
1772652256.389367,724272,0.00,0.03,0.01,-149.87,-80.56,353.50,-0.13,-2.19,1.44,0.09,-0.11,-0.07,-17.12,-60.56,4.37,0.25,-0.31,-0.69,3,5
1772652256.430575,724313,0.00,-0.09,-0.02,-149.50,-80.62,353.44,0.44,-1.31,0.94,0.12,-0.11,-0.08,-17.12,-60.56,4.37,-0.25,-0.31,-0.06,3,6
1772652256.470665,724354,-0.02,0.00,0.03,-149.25,-80.62,353.37,-1.37,-0.62,0.50,0.13,-0.15,-0.06,-17.12,-60.56,4.37,-0.37,0.00,-0.13,3,7
1772652256.511712,724394,0.06,0.00,-0.03,-149.12,-80.62,353.31,-1.19,0.25,-0.13,0.09,-0.11,-0.05,-17.12,-60.56,4.31,-0.69,-0.13,0.44,3,8
1772652256.551811,724435,-0.04,0.06,0.02,-149.06,-80.62,353.31,-0.69,-0.56,-0.13,0.09,-0.11,-0.12,-17.12,-60.56,4.31,-0.19,0.56,0.31,3,7
1772652256.590604,724474,0.03,-0.06,-0.01,-149.06,-80.62,353.31,0.88,0.19,0.19,0.11,-0.15,-0.08,-17.12,-60.56,4.31,0.25,0.31,-0.62,3,6
1772652256.631442,724514,0.07,-0.01,-0.04,-148.94,-80.62,353.31,0.69,-1.50,0.62,0.12,-0.16,-0.11,-17.06,-60.56,4.37,0.44,0.19,-0.62,3,5
1772652256.671641,724555,0.00,-0.07,-0.01,-148.69,-80.69,353.31,0.25,-1.00,0.62,0.13,-0.20,-0.09,-17.06,-60.56,4.37,-0.31,-0.44,-0.13,3,5
1772652256.712165,724595,0.56,-0.09,-0.11,-148.50,-80.75,353.31,-0.88,1.25,0.31,0.09,-0.15,-0.03,-17.06,-60.56,4.37,-0.37,-0.62,0.19,3,5
1772652256.751931,724635,-0.01,0.00,-0.02,-148.31,-80.75,353.25,-1.56,-0.25,-0.19,0.12,-0.13,0.02,-17.06,-60.56,4.37,0.00,-0.37,0.13,3,5
1772652256.790846,724674,0.01,0.10,0.00,-148.31,-80.75,353.19,0.00,-0.25,-0.31,0.11,-0.10,-0.03,-17.06,-60.56,4.37,-0.56,-0.50,0.50,2,4
1772652256.831749,724715,0.03,0.00,-0.02,-148.31,-80.75,353.19,0.56,-0.44,-0.44,0.08,-0.12,-0.08,-17.06,-60.56,4.37,0.19,0.00,-0.31,2,4
1772652256.872643,724755,-0.01,-0.01,0.00,-148.25,-80.75,353.25,0.81,-0.75,-0.69,0.12,-0.15,-0.02,-17.06,-60.56,4.37,-0.13,-0.25,-0.19,2,4
1772652256.913008,724796,0.03,-0.06,-0.02,-148.44,-80.81,353.31,0.00,-0.50,-0.62,0.12,-0.10,-0.02,-17.06,-60.56,4.37,0.25,-0.06,0.19,2,4
1772652256.952780,724836,0.00,0.05,-0.01,-148.44,-80.81,353.31,0.56,-0.19,-0.44,0.12,-0.16,-0.03,-17.06,-60.56,4.37,0.94,0.00,-0.06,2,4
1772652256.991861,724875,0.01,-0.01,-0.05,-148.62,-80.81,353.37,1.50,0.13,-0.69,0.12,-0.11,-0.03,-17.06,-60.56,4.37,-0.25,-0.25,0.31,2,5
1772652257.032896,724916,0.01,-0.07,-0.06,-148.87,-80.81,353.44,0.81,-0.06,-1.25,0.10,-0.17,-0.08,-17.06,-60.56,4.37,-0.37,-0.13,0.50,2,5
1772652257.073004,724956,0.06,-0.02,-0.04,-149.06,-80.87,353.50,-0.13,-1.19,-0.69,0.12,-0.15,-0.05,-17.06,-60.56,4.37,0.50,0.06,0.13,2,5
1772652257.113057,724996,0.06,0.09,-0.04,-148.87,-80.94,353.50,0.50,-1.31,-0.06,0.09,-0.13,-0.01,-17.06,-60.56,4.37,0.81,0.25,0.00,2,5
1772652257.153072,725036,0.01,0.10,0.00,-148.75,-81.00,353.62,2.31,-2.56,-0.81,0.08,-0.13,-0.04,-17.12,-60.56,4.44,1.00,0.50,-0.81,2,5
1772652257.192393,725075,-0.02,0.06,-0.01,-148.81,-81.06,353.75,3.56,-2.37,-1.44,0.07,-0.11,-0.04,-17.12,-60.56,4.50,0.69,1.06,-0.31,3,6
1772652257.233214,725116,0.08,-0.06,-0.06,-149.12,-81.19,354.00,3.81,-2.06,-2.37,0.10,-0.22,-0.12,-17.12,-60.63,4.50,0.00,0.56,-0.56,4,5
1772652257.273811,725157,0.03,-0.09,0.00,-149.44,-81.31,354.25,2.25,-2.69,-1.87,0.10,-0.18,-0.10,-17.12,-60.63,4.50,-0.75,-0.37,-0.19,3,5
1772652257.313913,725197,0.00,-0.07,-0.01,-149.50,-81.44,354.44,0.62,-2.19,-1.06,0.10,-0.17,-0.09,-17.12,-60.63,4.50,0.06,-0.31,0.13,4,5
1772652257.353096,725236,-0.08,-0.03,0.04,-149.44,-81.50,354.44,0.06,-1.75,-0.81,0.05,-0.09,-0.05,-17.12,-60.63,4.50,-0.31,-0.75,0.56,4,4
1772652257.392774,725276,-0.05,-0.04,0.05,-149.50,-81.56,354.50,0.13,-0.44,-0.81,0.08,-0.12,-0.05,-17.12,-60.56,4.44,-0.25,-0.06,0.31,4,3
1772652257.433928,725317,0.02,-0.02,-0.01,-149.69,-81.56,354.50,0.44,0.19,-1.19,0.15,-0.03,-0.10,-17.19,-60.56,4.44,-0.37,-0.44,0.37,3,4
1772652257.474620,725357,0.02,-0.07,-0.03,-150.00,-81.62,354.56,1.00,-0.25,-0.94,0.09,-0.17,-0.12,-17.12,-60.56,4.44,-0.50,-0.69,0.00,4,3
1772652257.514910,725398,-0.16,-0.10,-0.01,-150.06,-81.62,354.62,0.44,-0.06,0.25,0.12,-0.17,-0.02,-17.12,-60.56,4.44,-1.06,-0.56,0.19,4,4
1772652257.554278,725437,-0.07,-0.09,0.00,-150.12,-81.56,354.56,-1.69,1.69,0.56,0.10,-0.15,-0.09,-17.06,-60.56,4.44,-0.50,-0.75,0.44,4,4
1772652257.593212,725476,0.00,0.01,0.03,-150.12,-81.50,354.50,-2.87,2.50,1.62,0.11,-0.14,-0.02,-17.06,-60.50,4.44,0.50,-1.19,-0.06,3,4
1772652257.634085,725517,-0.01,0.12,0.00,-149.87,-81.37,354.25,-1.37,2.87,2.69,0.10,-0.14,-0.04,-17.06,-60.44,4.44,1.31,-1.37,-0.56,3,4
1772652257.674029,725557,-0.01,0.07,-0.05,-149.62,-81.25,354.12,0.69,3.44,2.06,0.11,-0.20,0.00,-17.06,-60.44,4.44,-0.25,-0.69,0.37,3,5
1772652257.714599,725597,0.02,-0.02,-0.10,-149.75,-81.12,354.06,-0.31,3.44,0.94,0.13,-0.14,-0.01,-17.06,-60.44,4.44,-0.56,0.37,-0.25,3,5
1772652257.753710,725637,0.12,-0.03,-0.09,-150.06,-80.94,354.00,-1.12,3.94,0.00,0.16,-0.20,-0.14,-17.06,-60.44,4.44,0.06,1.06,-0.31,2,5
1772652257.792751,725676,0.16,0.03,-0.04,-150.44,-80.87,353.94,-0.81,1.94,0.69,0.07,-0.17,-0.09,-17.06,-60.50,4.44,1.00,1.12,-0.88,2,5
1772652257.833448,725717,0.04,0.08,-0.05,-150.31,-80.81,353.87,0.50,-0.25,0.94,0.08,-0.14,-0.12,-17.06,-60.50,4.50,0.56,0.25,-0.37,3,5
1772652257.873936,725757,0.00,-0.05,-0.03,-150.25,-80.81,353.94,1.19,-0.75,0.56,0.10,-0.19,-0.04,-17.06,-60.50,4.50,-0.19,-0.25,-0.69,2,6
1772652257.914183,725797,0.01,-0.06,-0.01,-150.19,-80.81,353.94,-0.13,-0.75,0.25,0.11,-0.20,-0.09,-17.06,-60.50,4.50,-0.75,-0.13,0.06,2,5
1772652257.954295,725837,0.00,-0.07,-0.01,-150.12,-80.81,353.94,-1.69,-0.19,0.00,0.09,-0.18,-0.11,-17.00,-60.50,4.50,-0.75,0.00,0.19,2,5
1772652257.993867,725877,-0.01,0.00,-0.01,-150.06,-80.81,353.81,-2.19,-0.62,0.56,0.09,-0.15,-0.04,-17.00,-60.50,4.44,-0.62,-0.50,0.37,2,5
1772652258.034222,725917,-0.05,0.04,0.02,-149.87,-80.81,353.75,-1.06,-0.44,1.25,0.07,-0.07,0.01,-17.00,-60.50,4.44,0.13,-0.13,0.06,2,5
1772652258.074608,725958,0.00,0.05,-0.01,-149.62,-80.81,353.69,0.31,0.75,0.50,0.10,-0.06,-0.04,-17.00,-60.50,4.44,-0.37,-0.19,0.06,1,7
1772652258.115047,725998,0.08,-0.03,-0.08,-149.75,-80.75,353.69,0.19,0.81,0.06,0.11,-0.13,-0.09,-17.00,-60.50,4.44,-0.31,-0.13,-0.37,2,7
1772652258.155089,726038,0.03,-0.01,-0.06,-149.81,-80.75,353.69,0.44,0.19,-0.25,0.12,-0.20,-0.10,-17.00,-60.50,4.44,-0.31,-0.06,-0.13,2,7
1772652258.195535,726078,0.00,-0.05,-0.03,-149.75,-80.75,353.69,0.00,-0.69,0.25,0.08,-0.17,-0.03,-16.94,-60.50,4.44,-0.13,-0.37,0.13,2,8
1772652258.235750,726119,-0.06,0.05,0.00,-149.69,-80.75,353.69,-0.88,-0.81,0.69,0.10,-0.17,-0.04,-16.94,-60.50,4.44,0.50,0.06,-0.50,2,9
1772652258.275962,726159,0.04,0.00,-0.01,-149.62,-80.75,353.62,0.13,0.06,0.31,0.08,-0.10,-0.05,-16.94,-60.50,4.44,-0.50,-0.56,-0.19,3,8
1772652258.315947,726199,0.03,0.03,-0.03,-149.62,-80.75,353.62,-0.31,-1.06,0.31,0.11,-0.16,-0.09,-16.94,-60.50,4.44,0.06,-0.06,-0.75,3,8
1772652258.355890,726239,0.01,0.00,0.00,-149.50,-80.81,353.62,0.50,-0.88,0.19,0.09,-0.15,-0.02,-16.94,-60.50,4.50,-0.62,-0.31,-0.37,3,8
1772652258.396223,726279,0.02,-0.05,0.01,-149.37,-80.81,353.62,-0.31,-1.19,0.25,0.13,-0.19,-0.06,-16.94,-60.50,4.44,-0.19,0.31,-0.06,3,8
1772652258.436363,726320,0.00,0.04,0.00,-149.19,-80.87,353.62,-1.62,-0.75,0.56,0.07,-0.17,-0.07,-16.94,-60.50,4.44,0.31,0.13,-0.06,3,6
1772652258.476502,726360,-0.08,0.07,0.05,-149.06,-80.87,353.56,-0.37,-0.88,-0.13,0.11,-0.12,-0.01,-16.94,-60.50,4.44,-0.19,-0.31,0.31,3,5
1772652258.516470,726400,0.00,0.03,0.01,-149.00,-80.94,353.56,0.69,0.31,0.44,0.12,-0.19,-0.07,-16.94,-60.50,4.44,0.19,-0.31,-0.31,3,4
1772652258.556570,726440,0.02,-0.01,0.00,-149.06,-80.94,353.56,1.00,0.13,0.06,0.09,-0.20,-0.06,-16.94,-60.50,4.44,-0.19,-0.13,0.00,3,5
1772652258.596145,726479,0.12,-0.02,-0.01,-149.06,-80.94,353.62,0.19,-1.31,-0.31,0.12,-0.16,-0.07,-16.94,-60.50,4.44,-0.06,-0.13,0.00,3,4
1772652258.636938,726520,0.01,0.05,-0.03,-148.94,-80.94,353.62,0.19,-1.87,-0.94,0.09,-0.19,-0.03,-16.94,-60.50,4.44,-0.06,-0.69,0.31,3,3
1772652258.677034,726560,0.01,0.09,-0.02,-148.81,-81.06,353.69,1.06,-2.56,-0.69,0.12,-0.14,-0.04,-16.87,-60.50,4.44,0.19,-0.44,0.37,2,4
1772652258.717507,726600,0.01,0.08,-0.03,-148.75,-81.12,353.81,2.37,-2.87,-1.12,0.12,-0.12,-0.04,-16.94,-60.50,4.50,0.75,0.25,-0.44,2,5
1772652258.756492,726640,0.02,0.03,-0.02,-148.75,-81.25,354.00,3.00,-2.06,-1.25,0.09,-0.16,-0.03,-16.94,-60.50,4.50,0.06,-0.19,-0.13,3,6
1772652258.796601,726680,-0.03,-0.05,-0.01,-148.87,-81.37,354.12,2.31,-2.50,-1.31,0.13,-0.16,0.00,-16.94,-60.50,4.50,0.25,-0.06,0.31,3,6
1772652258.837466,726720,-0.08,-0.06,-0.01,-149.00,-81.44,354.25,0.50,-0.56,-1.25,0.09,-0.17,0.02,-16.94,-60.50,4.50,0.06,-0.31,0.56,3,6
1772652258.877860,726761,-0.02,-0.02,0.02,-149.25,-81.44,354.31,0.06,-0.13,-1.12,0.07,-0.16,-0.06,-16.94,-60.44,4.44,-0.62,-0.19,0.69,4,6
1772652258.918332,726801,-0.02,-0.04,-0.01,-149.50,-81.50,354.37,0.00,-0.06,-0.50,0.10,-0.09,-0.03,-17.00,-60.44,4.37,0.00,-0.56,0.75,5,5
1772652258.958305,726841,-0.01,-0.06,0.00,-149.50,-81.50,354.37,0.00,0.50,0.06,0.13,-0.20,-0.07,-17.06,-60.44,4.37,-0.37,-0.75,1.12,5,5
1772652258.997877,726881,-0.01,-0.05,-0.01,-149.50,-81.50,354.31,-1.37,0.31,0.13,0.08,-0.23,-0.11,-17.06,-60.38,4.37,-0.13,-0.69,0.81,5,5
1772652259.038341,726921,-0.03,0.00,0.00,-149.44,-81.44,354.25,-1.75,0.62,1.12,0.09,-0.15,-0.04,-17.06,-60.31,4.31,0.50,-2.94,1.62,5,5
1772652259.078393,726962,-0.13,0.17,0.09,-149.06,-81.44,354.12,-1.31,0.62,1.75,0.07,-0.11,0.01,-17.19,-60.19,4.31,2.31,-3.19,1.62,5,4
1772652259.118661,727002,-0.01,0.26,0.02,-148.87,-81.31,354.06,1.25,3.06,0.69,0.07,-0.19,-0.02,-17.31,-60.06,4.37,3.31,-0.94,0.56,5,4
1772652259.157987,727041,0.16,0.10,0.00,-149.12,-81.19,354.06,3.56,2.94,-0.44,0.16,-0.12,-0.14,-17.37,-60.06,4.44,2.69,-0.06,-0.69,5,4
1772652259.198356,727081,0.13,-0.06,-0.03,-149.62,-81.12,354.25,4.44,1.44,-0.94,0.14,-0.29,-0.16,-17.31,-60.06,4.50,0.00,-0.37,-0.19,5,4
1772652259.239233,727122,0.21,-0.22,-0.13,-150.25,-81.12,354.44,0.37,1.12,-0.69,0.09,-0.34,-0.07,-17.19,-60.06,4.50,-1.44,-0.31,0.37,4,4
1772652259.279424,727162,-0.01,-0.19,-0.12,-150.69,-81.06,354.44,-4.37,2.12,-0.06,0.08,-0.18,0.01,-17.06,-60.06,4.44,-2.06,-0.81,0.88,4,4
1772652259.319621,727203,-0.02,-0.01,-0.06,-150.87,-80.94,354.19,-6.19,3.19,0.50,0.15,-0.11,0.01,-16.94,-60.00,4.31,-3.06,-0.13,1.62,3,5
1772652259.358917,727242,0.08,0.08,-0.05,-150.87,-80.81,353.87,-5.50,3.00,1.44,0.13,-0.06,-0.11,-17.00,-60.00,4.25,-0.75,1.12,1.06,2,4
1772652259.398592,727282,0.10,0.19,0.00,-150.50,-80.75,353.62,-3.44,1.06,1.44,0.13,0.01,-0.07,-17.06,-60.00,4.19,0.56,0.06,0.81,2,4
1772652259.439519,727323,-0.06,0.20,0.00,-150.31,-80.75,353.50,0.56,1.06,-1.00,0.13,0.00,0.00,-17.12,-60.00,4.19,0.75,-0.62,0.62,2,5
1772652259.480041,727363,0.00,0.09,-0.07,-150.75,-80.69,353.62,3.37,2.12,-2.44,0.15,-0.03,-0.06,-17.19,-60.00,4.19,0.69,0.62,-0.56,2,5
1772652259.520340,727403,0.04,-0.05,-0.07,-151.62,-80.69,353.87,4.06,1.56,-2.00,0.14,-0.10,-0.05,-17.12,-60.00,4.25,0.37,0.81,-0.88,2,4
1772652259.559647,727443,0.12,-0.13,-0.14,-152.31,-80.62,354.12,3.50,0.69,-0.94,0.11,-0.18,-0.09,-17.06,-60.06,4.25,0.37,0.44,-1.37,2,4
1772652259.599995,727483,0.04,-0.15,-0.05,-152.56,-80.62,354.25,1.50,-1.06,0.19,0.10,-0.21,-0.07,-16.94,-60.06,4.31,-0.75,-0.62,-0.94,3,4
1772652259.640840,727524,-0.05,-0.11,0.00,-152.31,-80.69,354.19,-1.94,-1.19,1.87,0.14,-0.14,0.04,-16.75,-60.06,4.37,-0.62,-0.19,-0.88,2,4
1772652259.680910,727564,0.03,0.03,-0.05,-151.69,-80.69,354.00,-2.94,0.06,2.12,0.11,-0.17,-0.03,-16.69,-60.06,4.37,-1.25,-0.06,-0.31,2,5
1772652259.721262,727604,0.06,0.16,-0.04,-151.19,-80.62,353.81,-3.00,-1.00,1.75,0.07,-0.08,-0.09,-16.62,-60.06,4.37,-1.12,0.44,-0.31,2,5
1772652259.760826,727644,0.04,0.11,-0.02,-150.62,-80.62,353.62,-1.69,-1.37,0.69,0.11,-0.14,-0.05,-16.56,-60.06,4.37,-0.94,-0.37,-0.44,2,5
1772652259.800612,727684,0.01,0.04,0.03,-150.25,-80.69,353.56,-0.50,-1.87,1.00,0.16,-0.16,-0.07,-16.50,-60.06,4.37,-0.88,-0.19,-0.13,2,6
1772652259.841432,727724,-0.02,0.04,0.01,-150.00,-80.69,353.56,-0.06,-0.81,0.44,0.12,-0.15,-0.11,-16.50,-60.06,4.37,-0.19,0.37,-0.44,2,5
1772652259.881834,727765,-0.03,0.11,-0.03,-149.81,-80.75,353.56,0.19,-1.19,-0.19,0.11,-0.14,-0.01,-16.44,-60.06,4.37,-0.69,0.00,-0.25,2,5
1772652259.921909,727805,0.02,0.02,-0.03,-149.69,-80.75,353.56,0.88,-0.37,0.19,0.09,-0.13,-0.01,-16.44,-60.06,4.37,-0.37,0.00,-0.37,2,5
1772652259.961253,727844,0.06,0.04,0.00,-149.69,-80.75,353.62,1.44,-0.62,-0.31,0.09,-0.10,-0.02,-16.44,-60.06,4.37,-0.37,0.13,-0.56,1,5
1772652260.001498,727885,0.03,0.04,-0.05,-149.75,-80.81,353.69,1.81,0.00,-0.50,0.10,-0.13,-0.02,-16.37,-60.06,4.37,-0.06,0.19,-0.50,1,7
1772652260.042171,727925,0.12,0.07,-0.07,-149.87,-80.75,353.75,2.19,-1.06,-0.81,0.10,-0.10,-0.03,-16.37,-60.13,4.37,0.44,0.69,-0.44,1,6
1772652260.082364,727966,0.04,0.04,-0.05,-150.00,-80.81,353.94,2.62,-1.87,-1.44,0.12,-0.11,-0.06,-16.37,-60.13,4.37,0.44,0.88,-0.75,1,6
1772652260.122701,728006,0.09,-0.02,-0.09,-150.19,-80.94,354.12,3.12,-1.94,-1.56,0.10,-0.15,-0.10,-16.31,-60.19,4.44,0.06,0.69,-0.94,1,5
1772652260.162505,728045,0.02,-0.05,-0.02,-150.37,-81.00,354.31,2.87,-2.81,-1.50,0.07,-0.18,-0.10,-16.25,-60.19,4.44,0.31,0.56,-0.50,1,6
1772652260.202160,728085,-0.04,-0.05,0.00,-150.37,-81.12,354.50,2.19,-2.94,-1.00,0.09,-0.14,-0.05,-16.19,-60.19,4.50,0.50,0.37,-0.19,1,6
1772652260.242951,728126,-0.06,-0.07,0.00,-150.25,-81.25,354.56,0.88,-2.00,-0.50,0.11,-0.09,-0.07,-16.19,-60.19,4.50,-0.06,0.13,0.37,1,6
1772652260.283599,728166,-0.02,-0.06,-0.03,-150.06,-81.31,354.62,-1.00,-1.25,-0.69,0.10,-0.16,-0.15,-16.19,-60.19,4.44,-0.62,0.19,0.69,2,6
1772652260.323678,728207,-0.02,-0.01,0.00,-149.94,-81.37,354.56,-2.37,-1.50,-0.37,0.10,-0.09,-0.09,-16.19,-60.19,4.44,-0.56,-0.31,0.31,3,7
1772652260.363041,728246,-0.07,0.03,0.04,-149.69,-81.37,354.44,-1.87,-1.37,0.31,0.08,-0.13,-0.14,-16.19,-60.19,4.44,-0.75,-0.69,0.81,3,7
1772652260.403249,728286,-0.02,-0.08,0.06,-149.50,-81.44,354.44,0.00,-1.06,0.13,0.14,-0.09,-0.02,-16.19,-60.19,4.37,-0.94,-1.19,0.25,4,5
1772652260.443867,728327,-0.06,0.01,0.08,-149.19,-81.44,354.44,-0.69,-0.31,1.37,0.05,-0.04,-0.09,-16.12,-60.13,4.44,0.06,-0.06,-0.69,4,5
1772652260.483872,728367,-0.12,0.00,-0.03,-148.94,-81.44,354.37,1.31,0.81,1.25,0.12,0.00,-0.14,-16.00,-60.19,4.50,1.56,0.13,-2.94,4,5
1772652260.524233,728407,0.10,0.07,-0.09,-148.69,-81.37,354.37,2.69,0.94,3.37,0.15,-0.05,0.03,-15.88,-60.19,4.75,3.69,-0.69,-3.81,4,5
1772652260.563807,728447,-0.03,-0.04,-0.09,-148.12,-81.25,354.37,4.06,-0.25,3.19,0.10,-0.14,0.02,-15.75,-60.19,4.87,0.19,-1.12,-3.31,4,4
1772652260.603798,728487,-0.03,-0.14,-0.09,-147.62,-81.19,354.44,2.87,0.31,2.87,0.06,-0.16,0.02,-15.50,-60.25,5.00,-0.06,-1.12,-3.50,5,5
1772652260.644808,728528,0.02,-0.13,-0.10,-147.06,-81.12,354.31,-1.87,1.06,3.94,0.12,-0.22,-0.03,-15.25,-60.25,5.19,0.69,0.37,-2.44,6,5
1772652260.684928,728568,0.09,-0.05,-0.09,-146.31,-81.00,354.06,-3.50,0.69,3.50,0.11,-0.11,0.00,-15.13,-60.25,5.25,-0.81,-0.44,-0.69,6,5
1772652260.725166,728608,-0.05,0.00,-0.10,-145.56,-80.94,353.75,-4.44,1.44,2.94,0.09,-0.15,-0.01,-15.06,-60.31,5.25,-1.31,0.75,0.25,5,4
1772652260.764458,728648,0.05,0.06,-0.11,-145.00,-80.81,353.44,-5.62,2.12,3.25,0.07,-0.11,-0.03,-15.06,-60.31,5.19,-0.06,0.75,0.50,5,5
1772652260.804529,728688,0.12,0.20,-0.03,-144.44,-80.69,353.06,-5.06,0.69,2.00,0.04,-0.11,-0.14,-15.06,-60.38,5.19,0.25,0.44,0.75,6,5
1772652260.845515,728729,0.06,0.08,0.00,-144.00,-80.62,352.81,-2.87,-1.00,-0.31,0.12,-0.14,-0.18,-15.06,-60.31,5.12,-2.31,0.25,1.56,5,7
1772652260.885768,728769,-0.06,-0.09,0.05,-143.87,-80.69,352.75,-3.44,-0.94,-1.06,0.12,-0.08,0.00,-15.06,-60.31,5.00,-3.31,-0.75,1.94,6,7
1772652260.925953,728809,-0.05,-0.15,0.01,-143.94,-80.75,352.62,-5.12,1.06,-0.25,0.07,-0.14,-0.07,-15.00,-60.31,4.81,-4.19,0.75,2.37,6,7
1772652260.964963,728848,0.07,0.00,0.06,-143.81,-80.69,352.31,-6.37,0.62,1.75,0.08,-0.10,-0.16,-15.06,-60.31,4.75,0.00,1.06,1.44,6,7
1772652261.005152,728888,0.03,0.25,0.04,-143.31,-80.62,352.00,-4.69,0.44,1.19,0.04,-0.06,-0.16,-15.13,-60.38,4.69,0.37,0.56,1.00,5,6
1772652261.046063,728929,0.09,0.15,0.03,-143.06,-80.62,351.87,-0.44,-0.69,0.44,0.10,-0.05,-0.13,-15.19,-60.38,4.75,1.25,0.19,-0.06,5,7
1772652261.086353,728970,0.03,0.18,0.03,-142.75,-80.62,351.87,1.94,-0.75,-0.25,0.10,-0.11,-0.17,-15.25,-60.38,4.75,1.50,0.75,-0.44,5,7
1772652261.126694,729010,-0.03,-0.05,0.01,-142.75,-80.69,352.00,1.94,-0.69,-0.94,0.09,-0.21,-0.08,-15.25,-60.38,4.81,0.69,0.13,-0.31,5,8
1772652261.166269,729049,-0.12,-0.06,0.03,-142.94,-80.75,352.06,1.31,-0.25,-1.00,0.10,-0.18,0.03,-15.19,-60.38,4.81,0.00,-0.81,0.00,5,6
1772652261.206902,729090,-0.09,0.00,-0.01,-143.06,-80.69,352.12,-0.06,1.19,0.19,0.11,-0.13,0.00,-15.13,-60.38,4.81,-0.25,-0.50,0.37,3,7
1772652261.247577,729131,0.01,-0.01,-0.06,-143.31,-80.69,352.12,-0.37,1.94,0.62,0.13,-0.10,-0.03,-15.13,-60.31,4.87,-0.25,-0.62,0.25,3,6
1772652261.287266,729171,0.06,0.09,-0.10,-143.50,-80.56,352.06,-0.62,2.56,0.62,0.12,-0.06,-0.06,-15.13,-60.31,4.87,0.37,-0.31,0.44,4,6
1772652261.327825,729211,0.09,0.04,-0.10,-143.81,-80.50,352.00,-0.37,1.56,-0.62,0.12,-0.06,-0.05,-15.13,-60.31,4.81,0.25,-0.19,0.88,4,6
1772652261.367608,729251,0.04,0.10,-0.07,-144.12,-80.44,352.06,0.00,1.00,-1.37,0.07,-0.03,-0.02,-15.19,-60.31,4.81,0.50,-0.13,0.62,4,6
1772652261.407600,729291,0.07,0.04,-0.06,-144.44,-80.50,352.12,1.31,-0.19,-1.69,0.09,-0.03,-0.06,-15.25,-60.31,4.81,0.75,-0.06,0.75,4,8
1772652261.448096,729331,0.03,-0.03,-0.04,-144.81,-80.50,352.25,1.94,-0.75,-1.19,0.09,-0.05,-0.06,-15.31,-60.31,4.81,0.56,-0.37,0.44,3,9
1772652261.488460,729371,0.02,-0.09,-0.03,-145.00,-80.56,352.37,1.75,-0.81,-1.25,0.15,-0.15,-0.07,-15.31,-60.31,4.81,0.37,-0.19,0.25,4,10
1772652261.528325,729411,0.02,-0.07,-0.02,-145.25,-80.62,352.50,0.69,-0.94,-0.62,0.13,-0.08,-0.04,-15.31,-60.31,4.81,0.69,0.44,-0.06,3,9
1772652261.568573,729452,0.04,-0.01,-0.03,-145.31,-80.62,352.56,0.62,-0.37,-0.62,0.13,-0.10,-0.04,-15.31,-60.31,4.81,-0.19,0.00,0.37,3,9
1772652261.608805,729492,-0.05,0.03,-0.01,-145.37,-80.69,352.62,0.81,-1.12,-0.56,0.10,-0.09,-0.05,-15.31,-60.31,4.81,0.13,0.81,0.13,4,9
1772652261.649330,729532,0.05,0.00,-0.02,-145.37,-80.75,352.69,1.94,-1.44,-0.88,0.13,-0.09,-0.14,-15.31,-60.31,4.81,-0.25,-0.13,-0.06,4,8
1772652261.689036,729572,0.06,0.01,0.00,-145.44,-80.81,352.81,1.94,-2.50,-0.56,0.14,-0.07,-0.06,-15.31,-60.31,4.81,-0.44,-0.69,-0.06,3,8
1772652261.729405,729612,0.01,0.04,-0.03,-145.25,-80.87,352.94,2.25,-2.06,-0.81,0.09,-0.10,-0.05,-15.31,-60.31,4.81,-0.13,0.25,-0.37,3,9
1772652261.768568,729652,0.00,0.03,0.00,-145.19,-81.00,353.06,2.50,-2.87,-1.25,0.08,-0.13,-0.05,-15.31,-60.31,4.87,-0.50,0.37,-0.37,3,8
1772652261.809030,729692,-0.03,-0.03,-0.02,-145.19,-81.12,353.25,2.69,-2.81,-1.44,0.09,-0.13,0.00,-15.31,-60.31,4.81,-0.31,0.06,-0.37,3,6
1772652261.849611,729733,-0.04,0.04,-0.03,-145.12,-81.19,353.44,2.31,-2.31,-1.12,0.09,-0.11,-0.03,-15.31,-60.31,4.81,-0.62,0.13,0.69,3,5
1772652261.889793,729773,0.03,-0.04,-0.02,-145.19,-81.31,353.62,1.50,-1.81,-1.31,0.05,-0.11,-0.05,-15.31,-60.31,4.81,-0.50,-0.62,0.69,4,6
1772652261.930087,729813,-0.05,0.00,0.02,-145.25,-81.37,353.75,1.25,-2.00,-1.62,0.12,-0.05,-0.03,-15.31,-60.25,4.75,-1.25,-0.81,1.00,5,6
1772652261.969583,729853,-0.03,-0.04,0.01,-145.44,-81.50,353.87,1.44,-0.75,-1.56,0.12,-0.08,-0.06,-15.38,-60.25,4.69,-1.12,0.13,1.00,5,6
1772652262.009828,729893,0.03,-0.05,-0.04,-145.69,-81.56,353.94,0.94,-0.75,-1.56,0.07,-0.10,-0.10,-15.38,-60.25,4.62,-2.06,0.19,1.50,4,6
1772652262.050771,729934,0.07,-0.10,-0.07,-145.87,-81.62,354.06,0.00,-1.94,-0.75,0.04,-0.12,-0.12,-15.44,-60.25,4.50,-0.62,0.37,1.44,5,7
1772652262.090604,729974,0.04,0.00,0.03,-145.56,-81.69,354.06,-1.00,-3.75,-0.13,0.11,-0.03,-0.19,-15.50,-60.25,4.44,1.12,-0.13,0.13,5,7
1772652262.130782,730014,-0.08,0.08,0.05,-144.87,-81.81,354.00,-0.25,-3.69,0.50,0.12,-0.09,-0.06,-15.56,-60.25,4.50,1.81,0.56,-0.44,5,6
1772652262.169987,730053,-0.06,0.04,0.06,-144.44,-81.94,354.06,1.44,-2.25,0.56,0.10,-0.11,-0.13,-15.63,-60.25,4.56,0.81,1.12,-1.31,5,6
1772652262.210264,730094,-0.11,0.02,0.01,-144.25,-81.94,354.12,2.25,-0.56,0.37,0.06,-0.15,0.00,-15.50,-60.31,4.62,-0.06,0.00,-1.06,5,6
1772652262.251058,730134,-0.07,-0.01,0.00,-144.19,-81.94,354.19,2.44,0.37,1.31,0.07,-0.15,-0.05,-15.44,-60.31,4.69,-0.25,0.06,-1.37,5,6
1772652262.291401,730174,-0.03,-0.12,-0.02,-144.06,-81.87,354.19,0.25,1.25,2.50,0.13,-0.20,0.00,-15.38,-60.31,4.69,-0.69,-0.25,-0.25,3,4
1772652262.331699,730215,-0.01,-0.09,-0.02,-143.69,-81.75,354.06,-2.75,2.37,2.37,0.10,-0.15,-0.09,-15.31,-60.31,4.62,-1.50,-0.75,1.19,3,4
1772652262.370804,730254,-0.01,-0.03,0.00,-143.50,-81.62,353.81,-5.31,3.69,2.06,0.09,-0.09,-0.16,-15.31,-60.31,4.62,-1.06,-0.31,1.31,3,4
1772652262.411095,730294,0.01,0.09,0.03,-143.69,-81.44,353.44,-6.25,4.31,0.69,0.05,-0.06,-0.14,-15.38,-60.31,4.50,-0.50,-1.12,1.50,3,4
1772652262.451891,730335,0.01,0.12,0.04,-144.06,-81.31,353.19,-3.69,2.56,-0.31,0.13,0.01,-0.03,-15.44,-60.19,4.44,-0.06,-2.00,1.19,2,4
1772652262.492013,730375,-0.11,0.02,0.00,-144.44,-81.25,353.06,-1.19,3.62,-0.62,0.16,-0.06,0.00,-15.44,-60.19,4.44,0.56,0.19,0.13,2,4
1772652262.532022,730415,0.06,0.05,-0.09,-145.12,-81.12,353.06,0.13,5.94,0.44,0.12,-0.07,-0.12,-15.44,-60.19,4.50,1.12,1.06,-0.88,2,4
1772652262.571909,730455,0.18,-0.05,-0.10,-145.94,-80.94,353.06,0.94,5.12,0.19,0.09,-0.09,-0.07,-15.44,-60.19,4.50,0.50,0.56,-0.94,1,4
1772652262.612009,730495,0.14,-0.05,-0.10,-146.50,-80.81,353.06,0.31,2.94,0.25,0.07,-0.12,-0.12,-15.38,-60.25,4.56,0.06,0.50,-1.00,1,5
1772652262.653164,730536,0.06,-0.06,-0.08,-146.69,-80.75,353.06,-0.13,0.25,0.25,0.07,-0.12,-0.12,-15.25,-60.25,4.56,-0.94,-0.94,-0.44,2,6
1772652262.693364,730576,-0.03,-0.08,0.00,-146.56,-80.75,353.00,-0.88,0.25,1.25,0.12,-0.12,-0.09,-15.19,-60.25,4.56,-0.75,-1.00,0.06,1,5
1772652262.733249,730616,-0.07,0.00,0.00,-146.19,-80.69,352.87,-2.19,0.81,2.25,0.12,-0.08,-0.02,-15.19,-60.19,4.56,0.19,-0.37,-0.44,1,5
1772652262.772793,730656,-0.02,0.12,0.02,-145.87,-80.56,352.69,-1.94,2.06,1.87,0.09,-0.11,-0.05,-15.13,-60.19,4.56,0.25,0.31,-0.37,1,5
1772652262.813539,730697,0.13,0.12,-0.07,-145.81,-80.50,352.56,-1.25,1.12,0.75,0.09,-0.08,-0.08,-15.13,-60.19,4.56,-0.44,0.06,-0.37,1,5
1772652262.853794,730737,0.00,0.19,-0.07,-145.75,-80.50,352.50,0.00,-0.06,-0.94,0.07,-0.08,0.00,-15.13,-60.19,4.56,-0.31,-0.19,0.37,2,5
1772652262.893871,730777,0.03,-0.03,-0.05,-146.00,-80.50,352.56,1.25,-0.06,-0.81,0.08,-0.09,-0.08,-15.13,-60.19,4.56,-0.25,-0.31,0.06,1,5
1772652262.934365,730817,0.04,-0.04,-0.04,-146.12,-80.50,352.62,0.37,-1.00,-0.50,0.12,-0.11,-0.08,-15.06,-60.19,4.56,-0.06,-0.19,-0.13,2,5
1772652262.974440,730857,-0.01,-0.01,-0.04,-146.00,-80.56,352.62,-0.56,-0.56,-0.25,0.10,-0.14,-0.04,-15.06,-60.19,4.56,0.19,-0.19,-0.06,2,5
1772652263.014915,730898,0.00,-0.01,-0.04,-145.94,-80.56,352.62,-0.75,-0.19,-0.56,0.11,-0.11,-0.04,-15.13,-60.19,4.56,-0.37,-0.56,0.88,2,5
1772652263.054837,730938,0.04,0.01,-0.05,-145.87,-80.56,352.56,-1.12,-0.75,-0.31,0.11,-0.10,-0.06,-15.06,-60.19,4.56,-0.44,-0.19,0.37,2,3
1772652263.094906,730978,0.02,0.01,-0.02,-145.75,-80.56,352.50,-0.81,-0.94,-0.56,0.13,-0.05,-0.03,-15.06,-60.19,4.56,-0.44,-0.31,0.13,2,3
1772652263.134929,731018,-0.02,0.00,-0.01,-145.62,-80.62,352.50,-0.56,-0.50,0.13,0.11,-0.09,-0.04,-15.06,-60.19,4.56,0.00,-0.44,0.19,3,4
1772652263.174915,731058,0.00,0.09,-0.01,-145.62,-80.62,352.50,-0.31,-0.19,0.25,0.11,-0.11,-0.03,-15.06,-60.19,4.56,0.56,0.06,-0.06,3,4
1772652263.215274,731099,0.13,0.01,0.01,-145.62,-80.62,352.50,0.31,-0.25,-0.13,0.12,-0.05,-0.05,-15.06,-60.19,4.56,0.19,-0.25,-0.13,4,4
1772652263.255500,731139,-0.03,0.02,-0.06,-145.56,-80.62,352.50,0.25,0.06,-0.56,0.10,-0.13,-0.10,-15.00,-60.19,4.56,0.00,0.19,0.19,4,4
1772652263.295430,731179,0.05,-0.05,-0.07,-145.62,-80.62,352.50,0.31,0.56,-0.19,0.12,-0.11,-0.12,-15.00,-60.19,4.56,0.25,0.06,0.00,4,5
1772652263.335690,731219,0.04,-0.03,-0.03,-145.69,-80.62,352.50,0.13,0.44,0.00,0.11,-0.12,-0.05,-15.00,-60.19,4.56,-0.06,-0.13,0.13,3,5
1772652263.375940,731259,0.04,-0.06,-0.02,-145.69,-80.62,352.50,-0.37,-0.62,-0.13,0.07,-0.09,-0.04,-15.00,-60.19,4.56,0.25,0.25,-0.25,4,4
1772652263.416199,731299,0.06,0.02,-0.01,-145.56,-80.62,352.50,-0.06,-0.37,0.06,0.08,-0.04,-0.07,-15.00,-60.19,4.56,0.06,-0.19,-0.06,3,5
1772652263.456345,731340,-0.02,0.06,-0.03,-145.56,-80.62,352.50,0.75,0.00,0.13,0.11,-0.04,-0.05,-15.00,-60.19,4.56,-0.06,-0.25,0.19,3,5
1772652263.496727,731380,0.01,-0.09,-0.02,-145.69,-80.62,352.56,1.31,0.88,-0.50,0.09,-0.08,-0.05,-15.00,-60.19,4.56,-0.37,-0.37,-0.06,4,6
1772652263.536645,731420,0.09,-0.08,-0.05,-145.81,-80.56,352.56,-0.19,0.00,0.13,0.11,-0.14,-0.12,-15.00,-60.19,4.56,-0.06,-0.13,-0.50,3,7
1772652263.576791,731460,0.06,-0.01,-0.01,-145.81,-80.56,352.56,-0.44,-0.75,0.62,0.10,-0.12,-0.09,-15.00,-60.19,4.56,0.81,0.06,-0.62,3,7
1772652263.616801,731500,0.02,0.00,-0.02,-145.44,-80.62,352.56,-0.31,-1.50,1.00,0.09,-0.12,-0.05,-15.00,-60.19,4.62,0.62,-0.44,-0.37,3,8
1772652263.656977,731540,-0.01,0.01,0.00,-145.12,-80.62,352.56,-0.13,-1.50,0.56,0.09,-0.09,-0.02,-15.00,-60.19,4.62,-0.13,-0.81,0.06,2,7
1772652263.697290,731580,-0.04,0.05,-0.04,-145.00,-80.69,352.56,-0.37,-0.94,-0.19,0.11,-0.07,-0.05,-15.00,-60.19,4.62,0.00,-0.81,0.06,2,6
1772652263.737424,731621,-0.04,0.01,-0.03,-144.94,-80.69,352.56,0.31,0.06,0.00,0.09,-0.12,-0.02,-15.00,-60.13,4.62,0.06,-0.69,-0.06,2,7
1772652263.777171,731661,0.01,0.07,-0.03,-144.94,-80.69,352.56,0.50,0.75,0.44,0.12,-0.09,0.00,-15.00,-60.13,4.62,0.44,-0.50,0.19,2,7
1772652263.817866,731701,0.06,0.02,-0.10,-145.06,-80.69,352.56,0.75,0.69,-0.50,0.08,-0.06,-0.07,-15.00,-60.13,4.62,0.25,0.06,0.56,2,5
1772652263.858031,731741,0.01,-0.01,-0.07,-145.31,-80.69,352.62,0.81,0.75,-1.44,0.08,-0.10,-0.06,-15.00,-60.13,4.56,-0.50,-0.69,0.69,2,6
1772652263.898160,731781,0.03,-0.03,-0.07,-145.62,-80.69,352.69,0.31,-0.37,-0.81,0.12,-0.10,-0.08,-15.00,-60.13,4.56,0.13,-0.19,0.00,2,6
1772652263.938146,731821,0.02,0.00,-0.07,-145.62,-80.69,352.69,0.88,-0.88,-0.19,0.13,-0.10,0.01,-15.00,-60.13,4.56,0.31,-0.25,0.44,2,5
1772652263.978320,731862,0.00,-0.01,-0.01,-145.56,-80.69,352.75,0.50,-0.62,0.06,0.08,-0.09,-0.04,-15.00,-60.13,4.56,0.50,0.00,-0.19,2,5
1772652264.018761,731902,0.08,0.01,-0.04,-145.56,-80.75,352.75,0.06,-0.50,-0.50,0.11,-0.08,-0.04,-15.06,-60.13,4.62,0.31,-0.19,0.25,2,4
1772652264.058904,731942,-0.05,0.07,-0.02,-145.56,-80.75,352.75,0.25,-1.50,-0.75,0.07,-0.14,-0.05,-15.06,-60.13,4.62,0.37,0.06,-0.06,2,4
1772652264.099198,731982,0.00,-0.09,-0.01,-145.62,-80.81,352.81,1.00,-0.94,-0.94,0.12,-0.14,-0.04,-15.06,-60.13,4.62,-0.31,-0.56,0.37,2,5
1772652264.139183,732022,0.04,-0.02,-0.02,-145.62,-80.81,352.87,0.00,-0.56,-0.13,0.14,-0.12,-0.04,-15.06,-60.13,4.62,0.00,-0.62,0.13,2,5
1772652264.179242,732062,0.00,0.01,-0.01,-145.56,-80.87,352.87,-0.56,-0.56,-0.06,0.11,-0.05,-0.06,-15.06,-60.13,4.62,1.00,-0.25,0.00,2,6
1772652264.219535,732103,-0.02,0.13,0.00,-145.56,-80.87,352.87,0.56,-0.31,-0.06,0.09,-0.07,-0.02,-15.13,-60.13,4.62,1.06,0.19,-0.25,2,6
1772652264.259777,732143,-0.04,-0.05,-0.03,-145.62,-80.87,352.94,1.94,-0.06,-0.50,0.11,-0.07,-0.02,-15.13,-60.13,4.62,0.25,-0.44,0.19,3,5
1772652264.299591,732183,-0.04,-0.07,0.01,-145.69,-80.87,353.00,1.25,0.69,-0.75,0.10,-0.11,0.03,-15.13,-60.13,4.69,0.19,-0.88,0.00,3,5
1772652264.339933,732223,-0.02,0.01,-0.05,-146.00,-80.87,353.06,0.50,0.62,0.56,0.11,-0.04,-0.06,-15.06,-60.06,4.69,2.06,-0.31,-1.75,4,5
1772652264.379157,732263,0.00,0.20,-0.04,-146.00,-80.81,353.06,2.56,1.44,0.44,0.18,-0.13,0.04,-15.13,-60.13,4.81,1.69,1.12,-0.50,5,5
1772652264.419755,732303,0.08,-0.06,-0.11,-146.37,-80.75,353.19,3.37,2.69,-0.25,0.10,-0.12,-0.07,-15.19,-60.19,4.81,1.56,1.12,-0.37,5,5
1772652264.460342,732344,0.04,0.01,-0.14,-146.81,-80.69,353.31,0.50,0.37,-1.12,0.10,-0.13,-0.05,-15.25,-60.19,4.87,1.62,0.44,-0.62,5,6
1772652264.500647,732384,0.02,-0.04,-0.13,-147.06,-80.69,353.37,1.00,-0.19,-0.50,0.12,-0.13,0.01,-15.31,-60.19,4.94,0.75,0.06,-0.50,5,6
1772652264.540729,732424,0.03,-0.03,-0.07,-147.00,-80.69,353.37,1.12,-0.81,0.94,0.15,-0.17,-0.02,-15.25,-60.19,4.94,1.12,0.44,-0.75,6,6
1772652264.580714,732464,0.04,-0.05,-0.06,-146.75,-80.69,353.37,0.37,-0.50,1.06,0.08,-0.05,-0.02,-15.25,-60.19,5.00,0.50,0.62,-0.62,5,5
1772652264.621023,732504,0.07,-0.09,-0.05,-146.62,-80.69,353.37,-1.31,-0.50,0.25,0.10,-0.02,-0.05,-15.25,-60.19,5.00,-0.19,0.06,-0.62,6,4
1772652264.661356,732544,-0.05,-0.03,-0.01,-146.56,-80.69,353.31,-1.87,-1.06,0.00,0.09,-0.14,-0.12,-15.25,-60.25,5.00,-1.44,0.31,0.75,5,4
1772652264.701696,732585,-0.05,-0.20,-0.01,-146.50,-80.75,353.25,-2.12,0.31,0.06,0.04,-0.03,-0.07,-15.19,-60.19,4.87,-2.19,-0.75,0.75,6,5
1772652264.741903,732625,-0.01,-0.17,0.01,-146.44,-80.69,353.12,-4.06,1.25,0.94,0.17,-0.15,-0.07,-15.19,-60.13,4.81,-3.12,-0.19,1.37,5,4
1772652264.781073,732664,0.02,-0.16,0.01,-146.25,-80.62,352.87,-5.25,2.06,1.19,0.10,-0.09,-0.07,-15.19,-60.13,4.69,-3.50,0.56,2.00,4,4
1772652264.821183,732705,0.13,0.02,0.05,-145.87,-80.50,352.50,-6.06,0.19,2.50,0.06,0.00,-0.25,-15.19,-60.19,4.56,1.12,1.00,-0.19,4,4
1772652264.862072,732745,0.04,0.28,0.11,-145.25,-80.50,352.25,-1.12,-1.50,1.69,0.09,-0.06,-0.05,-15.25,-60.19,4.62,0.75,-0.13,-0.62,5,3
1772652264.902355,732785,-0.12,0.09,0.05,-144.62,-80.50,352.19,3.12,-1.00,1.19,0.08,-0.12,-0.04,-15.19,-60.19,4.69,-0.25,-0.31,-0.81,4,3
1772652264.942232,732825,0.00,-0.10,-0.02,-144.37,-80.50,352.25,2.31,1.00,1.69,0.10,-0.19,-0.06,-15.13,-60.19,4.69,0.00,0.13,-1.31,6,3
1772652264.982463,732865,0.03,-0.06,0.00,-144.25,-80.44,352.25,-0.25,0.31,1.50,0.13,-0.23,-0.02,-15.00,-60.19,4.75,0.06,-0.88,-0.88,7,3
1772652265.022592,732906,-0.04,0.00,-0.01,-143.94,-80.37,352.19,-1.25,1.06,2.06,0.11,-0.17,0.04,-14.88,-60.19,4.81,-0.19,-1.00,-0.69,7,3
1772652265.062914,732946,0.00,0.12,0.00,-143.62,-80.31,352.00,-0.81,1.81,2.19,0.10,-0.07,0.05,-14.81,-60.13,4.81,-0.56,-0.81,-0.06,7,5
1772652265.103221,732986,0.02,0.11,-0.06,-143.50,-80.19,351.87,-0.69,2.62,1.50,0.08,-0.08,-0.04,-14.75,-60.13,4.81,-0.62,-0.56,0.44,6,5
1772652265.143226,733027,0.08,0.12,-0.07,-143.50,-80.06,351.81,-0.75,1.94,0.75,0.14,-0.09,-0.05,-14.75,-60.13,4.81,0.37,0.13,-0.13,6,5
1772652265.182990,733066,0.12,0.09,-0.08,-143.69,-80.00,351.75,0.56,1.31,-0.06,0.09,-0.08,-0.05,-14.75,-60.13,4.87,0.75,0.31,0.06,6,4
1772652265.223410,733107,0.09,0.05,-0.06,-143.81,-79.94,351.75,1.00,0.31,-0.69,0.12,-0.07,-0.06,-14.75,-60.13,4.87,0.44,0.25,0.44,6,5
1772652265.263692,733147,0.00,0.12,-0.07,-144.00,-79.94,351.81,1.19,0.00,-1.56,0.08,-0.06,-0.09,-14.81,-60.19,4.87,0.81,0.88,0.31,5,4
1772652265.303811,733187,0.05,-0.10,-0.06,-144.44,-80.00,352.00,2.69,0.06,-2.25,0.12,-0.12,-0.08,-14.81,-60.19,4.87,0.37,0.62,0.19,5,4
1772652265.344180,733227,0.08,-0.13,-0.03,-144.94,-80.00,352.19,1.94,-1.06,-0.94,0.13,-0.11,-0.11,-14.81,-60.19,4.87,0.13,0.25,0.37,2,5
1772652265.383979,733267,0.02,-0.15,-0.04,-145.00,-80.06,352.25,0.37,-1.31,-0.56,0.13,-0.11,-0.07,-14.81,-60.19,4.87,0.37,0.19,0.31,3,5
1772652265.424395,733307,0.00,-0.03,-0.01,-144.94,-80.12,352.31,-0.94,-1.81,-0.62,0.13,-0.08,-0.01,-14.75,-60.19,4.87,0.19,-0.25,0.37,2,5
1772652265.464839,733348,-0.05,0.05,0.02,-144.81,-80.19,352.31,-0.31,-0.94,-0.37,0.11,-0.05,-0.05,-14.75,-60.19,4.87,0.19,-0.13,0.62,3,4
1772652265.504812,733388,0.00,0.05,-0.01,-144.81,-80.25,352.31,0.88,-0.37,-1.19,0.13,-0.03,-0.06,-14.75,-60.19,4.87,0.19,0.00,0.37,2,4
1772652265.545076,733428,-0.01,-0.04,-0.03,-145.00,-80.25,352.37,1.50,0.37,-0.88,0.13,-0.07,-0.06,-14.75,-60.19,4.87,0.13,0.13,0.13,3,4
1772652265.585071,733468,0.04,-0.09,-0.05,-145.25,-80.25,352.50,1.19,-0.25,-0.94,0.11,-0.09,-0.05,-14.75,-60.19,4.87,0.13,0.44,0.13,4,5
1772652265.625563,733509,0.03,-0.01,-0.05,-145.44,-80.31,352.56,0.50,-0.06,-0.81,0.11,-0.08,-0.10,-14.75,-60.19,4.87,0.37,0.06,0.13,4,4
1772652265.665730,733549,0.01,-0.04,-0.05,-145.62,-80.31,352.56,0.50,-0.88,-0.81,0.12,-0.06,-0.08,-14.75,-60.19,4.87,0.13,-0.19,0.44,3,6
1772652265.705593,733589,0.00,-0.01,0.00,-145.62,-80.37,352.62,0.19,-1.00,-0.37,0.12,-0.07,-0.04,-14.75,-60.19,4.87,0.31,-0.25,0.37,4,7
1772652265.745894,733629,-0.02,-0.02,0.00,-145.56,-80.37,352.62,-0.06,-0.75,-0.44,0.11,-0.06,-0.02,-14.75,-60.19,4.87,0.56,-0.13,0.00,4,8
1772652265.785918,733669,0.05,-0.01,-0.02,-145.50,-80.37,352.62,0.62,0.13,-0.50,0.11,-0.08,-0.06,-14.75,-60.19,4.87,0.19,0.37,0.37,4,7
1772652265.826253,733709,0.04,-0.03,-0.09,-145.56,-80.37,352.62,0.56,-0.37,-0.69,0.12,-0.05,-0.06,-14.75,-60.19,4.87,0.00,-0.06,0.19,4,7
1772652265.866325,733750,-0.04,0.00,0.00,-145.62,-80.44,352.69,0.56,-0.81,-0.88,0.07,-0.10,-0.10,-14.75,-60.19,4.87,0.13,0.56,0.19,3,6
1772652265.906747,733790,0.02,-0.11,0.00,-145.75,-80.44,352.75,0.56,-0.69,-0.44,0.10,-0.08,-0.07,-14.75,-60.19,4.94,-0.13,-0.62,-0.25,3,7
1772652265.946713,733830,0.04,-0.02,-0.02,-145.69,-80.44,352.75,-0.25,-0.50,0.44,0.14,-0.10,-0.10,-14.75,-60.19,4.94,0.19,-0.31,0.19,2,7
1772652265.986733,733870,0.00,0.00,-0.03,-145.69,-80.44,352.75,-0.50,-0.31,0.31,0.11,-0.08,-0.05,-14.75,-60.19,4.94,-0.25,-0.06,0.19,2,6
1772652266.027474,733910,-0.03,0.04,0.00,-145.69,-80.44,352.75,-0.75,-0.75,-0.13,0.10,-0.03,-0.01,-14.75,-60.19,4.94,-0.44,-0.06,0.13,2,7
1772652266.067080,733950,0.04,0.05,-0.01,-145.62,-80.44,352.69,-0.19,0.31,0.00,0.12,-0.04,-0.04,-14.75,-60.19,4.94,0.19,0.25,0.00,2,6
1772652266.107312,733991,0.05,0.02,-0.05,-145.62,-80.44,352.75,1.00,-0.06,-0.44,0.12,-0.07,-0.06,-14.75,-60.19,4.94,-0.13,-0.25,0.13,2,5
1772652266.147406,734031,0.11,0.04,-0.06,-145.69,-80.44,352.75,0.81,-0.81,-0.31,0.12,-0.08,-0.04,-14.75,-60.19,4.94,0.37,0.19,-0.44,2,4
1772652266.187531,734071,-0.03,0.05,-0.02,-145.50,-80.50,352.81,1.62,-1.50,-0.62,0.11,-0.06,-0.01,-14.75,-60.19,4.94,0.50,0.19,0.06,2,4
1772652266.227539,734111,0.04,-0.02,-0.06,-145.62,-80.56,352.94,1.62,-1.06,-1.19,0.10,-0.02,0.00,-14.75,-60.19,4.94,-0.06,0.31,0.19,3,3
1772652266.268024,734151,0.02,0.02,-0.05,-145.69,-80.62,353.06,2.00,-1.69,-1.50,0.14,-0.10,-0.10,-14.69,-60.19,4.94,0.50,0.44,-0.50,3,4
1772652266.308435,734191,-0.01,-0.05,0.00,-145.81,-80.75,353.25,3.00,-2.12,-1.44,0.11,-0.09,-0.07,-14.69,-60.19,4.94,-0.56,0.19,-0.31,3,4
1772652266.348559,734232,0.00,-0.09,-0.05,-145.87,-80.81,353.44,2.69,-2.00,-0.50,0.09,-0.11,-0.02,-14.69,-60.19,4.94,-0.50,0.13,-0.19,3,5
1772652266.388599,734272,0.01,-0.07,-0.01,-145.69,-80.87,353.50,1.31,-1.94,-0.25,0.12,-0.09,-0.08,-14.69,-60.19,4.94,0.06,0.19,-0.06,3,5
1772652266.428561,734312,0.00,-0.02,0.00,-145.50,-80.94,353.56,0.81,-1.62,-0.44,0.09,-0.13,-0.10,-14.69,-60.19,4.94,-0.69,-0.25,0.56,4,5
1772652266.469162,734352,-0.08,-0.02,-0.03,-145.37,-81.00,353.62,0.94,-1.50,-0.75,0.06,-0.07,-0.02,-14.69,-60.19,4.87,-1.69,-0.50,1.69,4,5
1772652266.509153,734392,0.04,-0.16,0.00,-145.44,-81.06,353.69,0.62,-0.56,-0.50,0.12,-0.04,-0.14,-14.69,-60.19,4.75,-1.69,0.19,0.62,3,6
1772652266.548923,734432,0.05,0.00,0.00,-145.31,-81.06,353.69,-0.69,-1.19,1.00,0.12,-0.09,-0.17,-14.69,-60.19,4.75,0.88,0.75,0.31,3,6
1772652266.588750,734472,0.01,0.08,0.00,-144.87,-81.12,353.69,-0.13,-1.62,1.06,0.09,-0.04,-0.09,-14.75,-60.19,4.81,2.75,0.44,-0.19,3,6
1772652266.629033,734512,0.01,0.18,0.02,-144.50,-81.12,353.62,1.19,-1.81,0.13,0.13,0.00,-0.07,-14.88,-60.19,4.87,3.00,0.00,-1.19,3,7
1772652266.669751,734553,-0.04,0.00,0.04,-144.31,-81.19,353.75,3.81,-1.62,-0.88,0.12,-0.14,-0.07,-14.88,-60.25,4.94,0.06,-0.25,-1.00,4,7
1772652266.710149,734593,-0.09,-0.21,-0.04,-144.56,-81.25,354.00,3.31,-0.37,-1.19,0.13,-0.15,0.00,-14.81,-60.19,4.94,-2.37,-0.56,-0.31,4,6
1772652266.750362,734633,-0.01,-0.18,-0.11,-144.94,-81.25,354.12,-0.25,1.06,1.25,0.13,-0.18,-0.01,-14.75,-60.19,4.87,-1.19,-0.37,-0.06,5,6
1772652266.789916,734673,-0.01,0.12,-0.04,-144.75,-81.19,354.06,-0.37,0.37,3.19,0.10,-0.06,-0.01,-14.69,-60.19,4.87,-0.62,-0.06,1.00,5,6
1772652266.829792,734713,0.08,0.30,-0.06,-144.00,-81.12,353.94,4.75,-0.88,5.06,0.11,0.03,-0.02,-14.75,-60.19,4.87,0.94,0.50,0.62,5,7
1772652266.870415,734754,0.08,0.22,-0.03,-143.06,-81.06,354.06,8.88,-2.31,2.69,0.09,0.03,-0.08,-14.88,-60.19,4.87,0.75,0.94,0.69,5,7
1772652266.910867,734794,0.06,-0.03,-0.06,-142.75,-81.06,354.37,7.75,-1.44,-0.81,0.08,-0.01,-0.17,-14.94,-60.25,4.87,1.87,0.81,-0.44,5,6
1772652266.950996,734834,-0.01,-0.21,-0.02,-143.19,-81.12,354.75,4.50,-1.37,-3.50,0.11,-0.13,-0.09,-15.00,-60.31,4.94,1.19,1.19,-0.75,5,6
1772652266.990644,734874,0.00,-0.20,-0.02,-144.00,-81.25,355.06,1.25,-0.50,-2.56,0.06,-0.20,-0.09,-15.00,-60.31,4.94,0.56,0.94,-0.37,5,6
1772652267.031369,734914,0.05,-0.13,0.00,-144.44,-81.31,355.12,-1.00,-1.25,-0.19,0.10,-0.16,-0.11,-15.06,-60.38,4.94,0.88,0.69,-0.13,6,6
1772652267.071220,734955,-0.07,0.03,0.00,-144.06,-81.37,355.06,-1.56,-1.69,1.25,0.07,-0.09,-0.09,-15.13,-60.38,5.00,0.62,0.13,0.69,6,7
1772652267.111576,734995,-0.07,0.00,0.04,-143.62,-81.37,355.00,-1.62,-0.62,0.75,0.10,-0.06,-0.07,-15.13,-60.38,4.94,0.25,-0.50,0.37,6,6
1772652267.151470,735035,-0.04,0.02,0.01,-143.44,-81.37,354.87,-1.69,1.00,0.06,0.14,-0.07,-0.05,-15.19,-60.38,4.94,-0.75,0.19,1.00,5,7
1772652267.191575,735075,0.06,0.00,-0.01,-143.56,-81.31,354.81,-1.56,1.56,-0.31,0.13,-0.09,-0.07,-15.19,-60.38,4.87,-0.50,0.37,0.88,5,6
1772652267.231874,735115,0.03,0.04,-0.07,-143.75,-81.31,354.75,-1.19,1.62,-0.13,0.11,-0.05,-0.07,-15.25,-60.38,4.87,-0.13,-0.25,0.81,5,5
1772652267.272017,735155,-0.04,-0.04,0.00,-143.94,-81.25,354.69,-1.37,1.62,0.25,0.12,-0.07,-0.10,-15.31,-60.31,4.87,1.37,0.50,0.56,5,4
1772652267.312390,735196,0.00,-0.05,-0.01,-144.19,-81.19,354.62,-1.69,3.19,-0.62,0.11,-0.01,-0.14,-15.38,-60.31,4.87,1.25,0.31,0.56,4,5
1772652267.352570,735236,0.04,-0.10,-0.01,-144.75,-81.12,354.56,-4.12,2.87,-2.12,0.10,-0.10,-0.26,-15.44,-60.31,4.87,1.25,-0.50,-0.13,4,5
1772652267.391748,735275,-0.04,-0.10,0.06,-145.56,-81.12,354.44,-5.00,1.87,-4.00,0.10,-0.15,-0.11,-15.44,-60.25,4.87,-0.88,-3.06,1.69,3,5
1772652267.432246,735315,-0.16,-0.13,0.08,-146.50,-81.12,354.37,-5.37,3.50,-2.31,0.15,-0.06,0.11,-15.50,-60.13,4.81,-0.50,-1.94,1.56,3,4
1772652267.472859,735356,-0.01,0.06,-0.07,-147.12,-81.00,354.19,-5.00,6.25,0.88,0.13,-0.08,-0.02,-15.56,-60.13,4.75,0.94,0.62,0.00,2,4
1772652267.513088,735396,0.16,0.08,-0.16,-147.56,-80.75,353.87,-2.69,5.19,0.94,0.09,-0.04,-0.08,-15.56,-60.13,4.81,-0.62,0.44,0.44,3,4
1772652267.553234,735436,0.17,0.01,-0.13,-148.00,-80.56,353.75,-0.75,2.69,0.37,0.11,-0.02,-0.16,-15.56,-60.13,4.75,-1.00,0.06,0.06,3,4
1772652267.593541,735477,0.07,-0.01,-0.08,-148.19,-80.50,353.75,-0.56,0.44,0.19,0.11,-0.06,-0.07,-15.50,-60.13,4.75,-0.25,0.25,-0.62,3,4
1772652267.633988,735517,0.02,-0.06,-0.07,-148.25,-80.50,353.75,-0.19,-0.44,0.19,0.13,-0.06,-0.03,-15.50,-60.13,4.75,-0.44,-0.62,0.19,3,5
1772652267.674062,735557,-0.05,-0.01,-0.04,-148.25,-80.50,353.75,-0.62,0.00,0.56,0.09,-0.06,0.00,-15.50,-60.13,4.75,-0.19,-0.37,0.19,4,5
1772652267.714020,735597,0.00,-0.01,0.00,-148.19,-80.50,353.69,-0.88,0.44,0.50,0.10,-0.10,-0.06,-15.50,-60.13,4.75,-0.25,-0.75,0.25,4,4
1772652267.754198,735637,0.10,0.01,-0.05,-148.12,-80.44,353.62,-1.19,0.75,1.19,0.14,-0.12,-0.10,-15.50,-60.13,4.75,0.13,-0.56,-0.13,5,4
1772652267.794309,735678,0.10,0.02,-0.06,-148.00,-80.44,353.56,-0.50,0.06,0.31,0.10,-0.08,-0.07,-15.50,-60.13,4.75,-0.62,-0.56,0.31,5,6
1772652267.834624,735718,0.02,0.09,-0.04,-147.94,-80.44,353.56,-0.62,-1.62,-0.44,0.11,-0.03,-0.06,-15.50,-60.13,4.75,-0.56,0.19,-0.13,5,7
1772652267.874789,735758,0.06,0.04,-0.02,-147.69,-80.50,353.56,0.88,-1.37,-0.69,0.09,-0.12,0.01,-15.50,-60.13,4.75,-0.69,-0.69,0.00,6,7
1772652267.915000,735798,-0.01,0.00,-0.02,-147.56,-80.56,353.62,1.50,-1.81,-0.19,0.14,-0.11,-0.06,-15.44,-60.13,4.75,-0.31,0.06,0.00,4,7
1772652267.954721,735838,0.00,0.00,0.00,-147.44,-80.62,353.69,1.50,-0.94,0.06,0.12,-0.08,-0.05,-15.44,-60.13,4.75,0.69,0.56,-0.62,5,8
1772652267.994893,735878,0.01,0.10,0.00,-147.37,-80.62,353.75,1.75,-1.31,0.00,0.12,-0.08,-0.03,-15.44,-60.13,4.81,1.25,0.81,-0.81,4,8
1772652268.035192,735919,0.01,0.11,-0.01,-147.31,-80.69,353.81,2.94,-0.94,-0.62,0.11,-0.08,-0.09,-15.44,-60.19,4.87,1.06,1.25,-0.69,5,7
1772652268.075414,735959,0.02,0.04,-0.02,-147.50,-80.75,354.00,3.94,-1.25,-1.19,0.12,-0.10,-0.09,-15.50,-60.25,4.87,0.37,1.44,-0.88,4,7
1772652268.115832,735999,0.08,-0.05,-0.11,-147.81,-80.81,354.25,4.06,-1.19,-1.94,0.08,-0.14,-0.14,-15.44,-60.31,4.94,-1.25,0.56,-0.31,6,7
1772652268.155771,736039,0.11,-0.13,-0.08,-148.19,-80.87,354.56,3.50,-2.75,-1.69,0.09,-0.14,-0.08,-15.38,-60.31,4.87,-2.69,-0.88,0.69,5,7
1772652268.196169,736079,-0.06,-0.15,0.00,-148.06,-81.00,354.69,1.12,-3.69,-0.06,0.11,-0.08,-0.07,-15.31,-60.25,4.81,-1.00,-0.94,1.19,5,5
1772652268.236131,736119,-0.07,-0.04,0.07,-147.56,-81.12,354.69,-1.50,-2.44,0.56,0.15,-0.02,-0.11,-15.38,-60.19,4.75,0.37,-0.19,1.00,5,5
1772652268.276134,736160,-0.06,0.14,0.01,-147.25,-81.19,354.62,-1.81,-0.94,0.13,0.12,-0.02,0.00,-15.44,-60.19,4.69,1.19,0.19,0.06,6,5
1772652268.316366,736200,-0.04,0.09,0.03,-147.19,-81.19,354.62,1.00,0.69,-0.56,0.09,-0.02,-0.11,-15.44,-60.19,4.75,0.06,0.31,-0.19,6,5
1772652268.356802,736240,0.07,-0.10,-0.10,-147.50,-81.19,354.69,3.19,1.19,-0.44,0.11,-0.14,-0.13,-15.44,-60.19,4.75,-0.44,0.00,-0.69,5,5
1772652268.396789,736280,-0.01,-0.14,-0.03,-147.62,-81.12,354.81,1.56,-0.13,0.69,0.11,-0.21,-0.10,-15.44,-60.19,4.75,-0.88,0.00,-0.50,5,5
1772652268.437256,736320,0.05,-0.11,-0.05,-147.44,-81.12,354.81,-1.81,0.88,1.62,0.09,-0.15,-0.03,-15.38,-60.19,4.75,-0.25,-0.50,-0.06,5,5
