host_time_s,t_ms,ax1,ay1,az1,roll1,pitch1,yaw1,gx1,gy1,gz1,ax2,ay2,az2,roll2,pitch2,yaw2,gx2,gy2,gz2,emg1,emg2
1772818575.072878,1412489,-0.12,0.06,-0.14,-72.19,-83.00,9.63,-0.19,0.94,0.69,-0.10,0.06,-0.03,48.50,-70.62,3.62,-0.62,-0.19,-0.44,5,1
1772818575.073131,1412531,-0.09,0.05,-0.16,-72.50,-82.94,9.56,-0.62,0.75,0.88,-0.08,0.08,-0.01,48.50,-70.62,3.62,-0.31,0.06,-0.31,4,1
1772818575.073371,1412572,-0.08,0.09,-0.17,-72.62,-82.94,9.50,-0.94,0.44,0.62,-0.10,0.11,-0.01,48.50,-70.62,3.62,-0.19,0.06,-0.31,5,1
1772818575.073608,1412614,-0.09,0.13,-0.17,-72.62,-82.94,9.50,-0.50,0.44,0.37,-0.08,0.06,0.00,48.50,-70.62,3.62,-0.13,-0.31,-0.37,4,1
1772818575.073837,1412656,-0.13,0.11,-0.17,-72.62,-82.94,9.50,0.13,0.50,0.31,-0.12,0.08,0.05,48.50,-70.62,3.62,-0.06,0.25,0.00,4,1
1772818575.074072,1412697,-0.10,0.11,-0.18,-73.00,-82.94,9.50,-0.25,1.19,-0.50,-0.09,0.08,-0.04,48.50,-70.62,3.62,0.37,0.31,0.44,5,1
1772818575.074310,1412738,-0.11,0.13,-0.18,-73.19,-82.94,9.50,-0.19,0.69,-0.62,-0.09,0.15,0.00,48.50,-70.62,3.62,0.75,0.00,0.37,6,1
1772818575.074534,1412777,-0.12,0.16,-0.16,-73.69,-83.00,9.50,1.56,0.00,-2.19,-0.10,0.12,-0.02,48.44,-70.69,3.62,-0.50,0.31,0.13,6,1
1772818575.074770,1412817,-0.09,-0.01,-0.14,-73.81,-83.06,9.69,1.87,-0.19,-1.00,-0.05,0.10,-0.07,48.44,-70.69,3.62,0.56,-0.25,-0.44,7,1
1772818575.075002,1412858,-0.12,-0.01,-0.11,-73.94,-83.06,9.75,0.94,0.94,-0.62,-0.07,0.08,0.00,48.44,-70.69,3.62,0.56,-0.13,0.25,8,1
1772818575.075241,1412899,-0.07,-0.03,-0.15,-74.37,-83.12,9.75,-0.81,0.62,-0.31,-0.10,0.15,-0.04,48.44,-70.69,3.62,0.13,-0.31,0.13,8,1
1772818575.075476,1412940,-0.22,0.04,-0.12,-6.56,-83.12,9.75,-0.62,0.44,-1.06,-0.07,0.13,0.06,48.38,-70.62,3.62,-0.44,-0.75,-0.06,8,1
1772818575.075710,1412981,-0.16,0.05,-0.16,-6.50,-83.19,9.81,-0.50,2.37,-1.37,-0.08,0.20,0.03,48.31,-70.62,3.56,-0.94,-0.06,0.25,8,1
1772818575.075944,1413022,-0.05,-0.02,-0.18,-6.44,-83.31,9.81,0.50,1.50,-1.19,-0.09,0.17,-0.05,48.31,-70.62,3.56,-0.44,0.06,-0.13,9,1
1772818575.076176,1413060,0.00,0.01,-0.15,-6.44,-83.31,9.88,0.88,-0.25,0.06,-0.07,0.09,-0.09,48.31,-70.69,3.56,0.44,-0.81,-0.94,10,1
1772818575.076403,1413101,-0.05,0.00,-0.13,-6.44,-83.31,9.88,0.19,-0.13,1.31,-0.05,0.05,-0.01,48.31,-70.62,3.56,-0.13,-1.00,-0.75,10,1
1772818575.076638,1413141,-0.11,0.02,-0.14,-6.50,-83.25,9.75,-1.75,0.50,1.81,-0.07,0.07,-0.09,48.25,-70.62,3.56,-0.19,-0.31,-0.19,10,1
1772818575.077039,1413182,-0.09,0.16,-0.12,-6.56,-83.19,9.63,-1.62,-1.44,1.56,-0.07,0.06,0.00,48.19,-70.62,3.50,0.13,-1.25,-0.50,10,1
1772818575.077447,1413221,-0.14,0.18,-0.12,-76.75,-83.12,9.50,-0.94,0.13,1.44,-0.09,0.02,0.06,48.06,-70.56,3.50,0.37,-1.31,-0.19,10,1
1772818575.077712,1413260,-0.15,0.15,-0.13,-77.00,-83.06,9.44,0.06,0.19,0.56,-0.09,0.13,0.10,47.94,-70.56,3.50,-0.19,-1.12,-0.37,11,1
1772818575.078124,1413301,-0.16,0.08,-0.13,-77.25,-83.06,9.44,-0.06,1.62,-1.62,-0.08,0.13,0.06,47.81,-70.56,3.50,-0.37,-0.75,-0.06,10,2
1772818575.078557,1413342,-0.06,0.01,-0.16,-6.62,-83.12,9.50,0.31,2.25,-2.06,-0.08,0.16,0.02,47.75,-70.56,3.44,-0.69,-0.06,0.37,10,2
1772818575.079004,1413383,-0.02,0.00,-0.16,-6.56,-83.25,9.56,0.62,-0.13,-1.75,-0.07,0.18,-0.14,47.75,-70.56,3.44,-0.25,0.13,0.13,9,3
1772818575.079448,1413424,-0.04,0.00,-0.10,-6.50,-83.31,9.69,1.25,-0.88,-0.81,-0.10,0.04,0.01,47.69,-70.56,3.44,0.69,-1.00,-0.69,9,3
1772818575.079893,1413463,-0.13,-0.07,-0.09,-6.50,-83.31,9.75,0.94,-0.62,0.19,-0.07,0.02,-0.04,47.69,-70.56,3.44,-0.37,-0.19,-0.50,8,3
1772818575.080329,1413504,-0.13,0.02,-0.09,-6.50,-83.25,9.69,-0.56,-0.94,0.75,-0.09,0.06,-0.09,47.69,-70.56,3.44,-0.44,-0.31,0.31,7,2
1772818575.080763,1413545,-0.16,0.02,-0.06,-6.56,-83.25,9.63,-1.31,-1.31,1.06,-0.05,0.05,-0.03,47.69,-70.56,3.44,0.19,-1.81,-1.19,7,3
1772818575.081110,1413586,-0.19,0.15,-0.02,-6.62,-83.19,9.56,-0.75,-0.25,2.00,-0.05,0.04,0.10,47.56,-70.50,3.44,0.62,-0.56,-0.19,6,3
1772818575.081350,1413627,-0.16,0.07,-0.14,-78.31,-83.12,9.44,-0.69,2.44,0.94,-0.07,0.09,0.11,47.56,-70.50,3.44,0.25,0.44,0.62,6,3
1772818575.081579,1413668,-0.06,0.13,-0.18,-6.69,-83.12,9.38,-1.37,2.62,-0.19,-0.11,0.15,0.06,47.50,-70.50,3.44,0.94,0.00,0.31,5,4
1772818575.081809,1413710,-0.02,0.18,-0.18,-6.69,-83.12,9.38,0.69,1.06,-1.25,-0.05,0.13,0.00,47.44,-70.56,3.44,0.88,0.37,0.13,5,3
1772818575.082030,1413750,0.00,0.03,-0.15,-6.62,-83.19,9.44,2.75,0.44,-1.69,-0.07,0.09,-0.03,47.44,-70.56,3.44,-0.13,0.69,-0.13,5,2
1772818575.082304,1413789,-0.04,-0.09,-0.13,-6.62,-83.25,9.63,2.56,-0.81,-1.06,-0.05,0.07,-0.06,47.50,-70.56,3.44,-0.19,0.37,-0.25,5,3
1772818575.082543,1413829,-0.13,-0.09,-0.06,-6.56,-83.25,9.69,0.25,-1.25,-0.44,-0.09,0.04,0.09,47.50,-70.56,3.44,-0.37,0.31,-0.13,5,3
1772818575.082771,1413870,-0.25,-0.03,-0.04,-6.56,-83.31,9.69,-1.69,0.31,-0.19,-0.08,0.08,0.10,47.50,-70.62,3.37,-0.81,1.19,0.50,4,3
1772818575.083001,1413911,-0.11,0.04,-0.12,-6.56,-83.31,9.56,-1.50,1.19,0.13,-0.09,0.15,0.00,47.63,-70.69,3.37,-0.50,1.69,0.44,4,3
1772818575.083243,1413951,-0.09,0.08,-0.10,-6.56,-83.31,9.56,0.19,0.19,0.50,-0.08,0.07,0.00,47.69,-70.69,3.37,0.06,1.00,-0.25,5,3
1772818575.083471,1413990,-0.06,0.06,-0.11,-6.56,-83.25,9.50,0.31,1.69,0.81,-0.10,0.10,-0.03,47.75,-70.75,3.37,0.00,0.88,-0.31,5,3
1772818575.083704,1414031,-0.01,0.02,-0.10,-6.62,-83.25,9.50,0.69,-0.13,0.81,-0.07,0.06,-0.08,47.88,-70.75,3.37,-0.06,0.37,-0.62,6,3
1772818575.083946,1414072,-0.11,0.01,-0.09,-6.69,-83.19,9.50,-0.37,-0.75,1.25,-0.07,0.04,-0.01,47.88,-70.75,3.44,-0.25,0.06,-0.62,5,3
1772818575.084182,1414112,-0.17,0.08,-0.05,-6.69,-83.12,9.38,-1.12,-0.31,0.94,-0.07,0.04,0.04,47.94,-70.75,3.44,-0.31,0.50,0.00,5,3
1772818575.084412,1414153,-0.13,0.07,-0.08,-81.50,-83.12,9.31,-1.50,0.81,0.31,-0.06,0.12,-0.05,48.00,-70.75,3.44,-1.00,1.06,0.25,5,3
1772818575.084634,1414194,-0.08,0.17,-0.08,-81.81,-83.12,9.25,-0.94,0.88,0.19,-0.12,0.13,0.00,48.06,-70.75,3.44,0.44,0.50,0.56,5,2
1772818575.084862,1414235,-0.08,0.04,-0.06,-6.75,-83.12,9.25,0.88,-0.37,-1.25,-0.07,0.11,-0.03,48.13,-70.75,3.44,-0.37,0.00,-0.37,5,2
1772818575.085088,1414277,-0.07,0.02,-0.09,-6.75,-83.12,9.31,1.37,-0.19,-0.31,-0.05,0.08,-0.04,48.13,-70.75,3.44,0.44,-0.06,-0.50,6,2
1772818575.085319,1414317,-0.08,-0.06,-0.08,-6.75,-83.12,9.38,1.31,-0.50,-0.44,-0.08,0.07,-0.02,48.13,-70.75,3.44,0.06,0.06,-0.19,6,2
1772818575.085552,1414359,-0.10,-0.01,-0.09,-6.69,-83.19,9.38,-0.81,-0.44,-0.13,-0.09,0.07,0.00,48.13,-70.75,3.44,-0.13,0.13,-0.06,7,2
1772818575.085791,1414400,-0.11,0.02,-0.05,-6.69,-83.19,9.31,-1.25,-0.81,-0.37,-0.13,0.13,0.03,48.13,-70.75,3.44,-0.31,-0.25,0.00,7,2
1772818575.086024,1414442,-0.12,0.08,-0.05,-6.75,-83.12,9.31,-0.06,-0.37,-0.37,-0.09,0.10,0.02,48.13,-70.75,3.44,-0.31,-0.13,-0.31,7,2
1772818575.087075,1414482,-0.09,0.00,-0.04,-6.75,-83.12,9.31,1.00,0.37,0.31,-0.07,0.11,-0.01,48.13,-70.75,3.44,-0.13,0.31,-0.56,7,2
1772818575.128660,1414523,-0.08,0.01,-0.08,-6.75,-83.12,9.38,0.25,-0.13,0.25,-0.07,0.09,-0.01,48.13,-70.75,3.44,-0.06,-0.31,-0.25,7,2
1772818575.168745,1414564,-0.09,0.01,-0.08,-6.75,-83.12,9.38,-0.81,-0.13,0.19,-0.10,0.09,0.00,48.13,-70.75,3.44,-0.25,0.19,0.00,7,3
1772818575.210397,1414605,-0.10,0.08,-0.07,-6.75,-83.12,9.31,-0.62,-0.13,-0.13,-0.08,0.10,0.00,48.13,-70.75,3.44,-0.44,0.13,0.06,7,3
1772818575.251408,1414646,-0.11,0.03,-0.09,-6.75,-83.12,9.31,0.00,-0.56,0.13,-0.10,0.09,0.00,48.13,-70.75,3.44,0.06,0.31,-0.19,7,3
1772818575.292810,1414688,-0.09,0.02,-0.07,-6.75,-83.12,9.31,0.50,-0.50,0.19,-0.09,0.08,0.00,48.13,-70.75,3.44,-0.31,0.13,-0.44,7,3
1772818575.334821,1414729,-0.08,-0.01,-0.06,-6.75,-83.12,9.31,0.00,-0.75,0.19,-0.07,0.06,-0.02,48.13,-70.75,3.44,-0.25,-0.06,-0.31,7,3
1772818575.376303,1414771,-0.12,0.04,-0.06,-6.75,-83.12,9.31,-0.62,-0.94,0.56,-0.09,0.07,-0.02,48.13,-70.75,3.44,-0.25,-0.06,-0.13,5,4
1772818575.418220,1414813,-0.12,0.11,-0.07,-6.75,-83.12,9.31,-0.62,-0.50,0.31,-0.10,0.05,-0.02,48.13,-70.75,3.44,0.00,-0.44,0.25,5,3
1772818575.459094,1414854,-0.11,0.04,-0.05,-6.75,-83.12,9.31,-0.50,0.44,0.19,-0.06,0.12,-0.03,48.06,-70.75,3.44,0.00,-0.25,0.06,5,3
1772818575.500079,1414895,-0.16,0.18,-0.04,-6.75,-83.12,9.31,0.25,0.00,-0.06,-0.10,0.12,-0.04,48.06,-70.75,3.44,-0.50,-0.19,0.56,6,3
1772818575.541165,1414936,-0.07,0.02,-0.03,-6.69,-83.19,9.31,0.44,0.50,-1.06,-0.04,0.12,-0.05,48.00,-70.75,3.37,-0.62,-1.12,-0.69,7,2
1772818575.582545,1414977,-0.07,0.00,-0.06,-6.69,-83.19,9.38,0.19,0.62,-0.69,-0.04,0.11,-0.03,47.94,-70.69,3.37,-0.62,-1.12,-0.44,8,2
1772818575.621704,1415016,-0.05,-0.02,-0.05,-6.69,-83.19,9.38,-0.06,0.06,0.00,-0.09,0.10,-0.03,47.88,-70.69,3.37,0.50,-1.06,-0.62,9,2
1772818575.663134,1415058,-0.12,0.08,-0.07,-6.69,-83.19,9.38,0.37,-0.69,0.25,-0.10,0.04,0.04,47.81,-70.62,3.37,0.31,-1.19,-0.69,9,2
1772818575.704405,1415099,-0.16,0.05,-0.03,-6.69,-83.19,9.38,-0.06,0.00,0.13,-0.12,0.10,0.06,47.69,-70.56,3.37,-0.37,-1.44,-0.25,9,2
1772818575.746506,1415141,-0.10,0.01,-0.04,-6.62,-83.19,9.38,-0.50,1.12,-0.81,-0.10,0.11,0.03,47.63,-70.56,3.37,-0.37,-0.62,-0.25,8,1
1772818575.787386,1415182,-0.06,0.03,-0.09,-6.62,-83.25,9.38,-0.06,0.62,-0.06,-0.06,0.11,-0.03,47.56,-70.56,3.37,0.31,-1.06,-0.37,9,1
1772818575.829269,1415224,-0.07,0.04,-0.08,-6.62,-83.25,9.38,0.31,-0.31,0.13,-0.07,0.08,0.00,47.50,-70.50,3.37,0.25,-1.06,-0.44,8,1
1772818575.870367,1415265,-0.11,0.00,-0.06,-6.62,-83.25,9.38,0.25,-0.13,0.00,-0.12,0.09,0.03,47.44,-70.50,3.37,0.06,-0.88,-0.50,8,1
1772818575.911381,1415306,-0.11,0.01,-0.08,-6.62,-83.25,9.38,-0.50,-0.31,0.00,-0.10,0.09,0.00,47.38,-70.50,3.31,-0.25,-0.81,-0.44,7,2
1772818575.952508,1415347,-0.04,0.02,-0.08,-6.62,-83.25,9.38,-0.31,-0.69,0.19,-0.09,0.07,-0.02,47.38,-70.44,3.37,0.00,-0.88,-0.31,7,2
1772818575.993560,1415388,-0.09,0.06,-0.04,-6.62,-83.25,9.38,-0.13,-0.62,0.50,-0.10,0.08,0.00,47.31,-70.44,3.31,-0.06,-0.37,-0.44,6,2
1772818576.034215,1415429,-0.12,0.04,-0.04,-6.69,-83.19,9.38,-0.31,-0.50,0.44,-0.11,0.08,0.01,47.31,-70.44,3.31,0.19,-0.44,-0.31,5,2
1772818576.073416,1415468,-0.09,0.08,-0.06,-6.69,-83.19,9.38,-0.06,-0.13,0.06,-0.07,0.09,0.01,47.31,-70.44,3.31,0.31,-0.37,-0.13,4,3
1772818576.114447,1415509,-0.06,0.02,-0.09,-6.69,-83.19,9.38,0.00,-0.25,0.13,-0.04,0.09,-0.01,47.31,-70.44,3.31,-0.37,-0.19,0.00,4,3
1772818576.155832,1415551,-0.11,0.14,-0.08,-6.69,-83.19,9.38,-0.37,-0.31,0.56,-0.15,0.11,0.09,47.31,-70.44,3.31,0.31,-0.19,0.50,3,2
1772818576.198196,1415593,-0.08,0.03,-0.03,-6.62,-83.19,9.38,0.13,-0.62,-0.88,-0.08,0.12,-0.01,47.31,-70.44,3.31,-0.37,-0.50,-0.13,4,2
1772818576.239065,1415634,-0.09,0.07,-0.04,-6.62,-83.19,9.38,0.44,-0.75,0.31,-0.04,0.08,0.00,47.25,-70.44,3.31,0.31,-0.31,-0.31,5,2
1772818576.280846,1415676,-0.11,0.01,-0.02,-6.62,-83.19,9.38,0.69,-0.69,-0.06,-0.07,0.10,0.00,47.25,-70.44,3.31,0.31,0.13,0.19,5,3
1772818576.322172,1415717,-0.13,0.03,-0.07,-6.62,-83.19,9.38,-1.00,0.37,0.06,-0.10,0.09,0.03,47.25,-70.44,3.31,0.00,0.13,-0.06,6,3
1772818576.363284,1415758,-0.14,0.05,-0.07,-6.62,-83.19,9.38,-0.81,0.50,0.06,-0.08,0.10,0.08,47.25,-70.44,3.31,0.06,-0.25,0.25,6,3
1772818576.404434,1415799,-0.07,0.02,-0.11,-6.62,-83.19,9.38,0.31,0.56,-0.19,-0.08,0.11,0.01,47.31,-70.44,3.31,0.06,0.81,0.25,6,2
1772818576.445252,1415840,-0.03,0.00,-0.10,-6.62,-83.19,9.38,0.75,0.19,0.13,-0.11,0.15,0.00,47.44,-70.50,3.37,-0.56,1.37,0.06,6,2
1772818576.487181,1415882,-0.11,0.00,-0.06,-6.62,-83.19,9.38,-0.44,-0.75,-0.25,-0.08,0.13,0.05,47.56,-70.50,3.31,-1.06,1.25,0.06,6,2
1772818576.526187,1415921,-0.11,0.04,-0.02,-6.62,-83.25,9.38,-1.25,0.44,-0.69,-0.08,0.17,-0.02,47.69,-70.56,3.31,-0.88,1.44,-0.06,6,2
1772818576.566905,1415962,-0.08,0.10,-0.04,-6.62,-83.25,9.31,0.37,-0.69,0.31,-0.09,0.10,-0.03,47.81,-70.56,3.31,0.06,1.06,-0.44,6,2
1772818576.608229,1416003,-0.12,0.00,-0.04,-6.62,-83.19,9.38,1.37,-0.31,0.81,-0.07,0.07,0.01,47.88,-70.62,3.31,-0.56,0.88,-0.37,6,2
1772818576.649910,1416045,-0.12,-0.01,-0.02,-6.69,-83.19,9.38,-0.31,0.56,0.69,-0.08,0.09,-0.03,48.00,-70.62,3.31,-1.19,1.06,-0.25,5,2
1772818576.690814,1416086,-0.08,0.08,-0.06,-6.69,-83.19,9.31,-1.87,0.69,0.44,-0.06,0.08,0.00,48.06,-70.62,3.31,-0.62,0.81,-0.19,5,2
1772818576.732443,1416127,-0.10,0.15,-0.06,-6.69,-83.19,9.25,-1.06,0.69,0.88,-0.09,0.10,0.01,48.19,-70.69,3.31,-0.25,1.12,0.00,4,2
1772818576.773644,1416169,-0.08,0.11,-0.08,-6.69,-83.12,9.19,0.06,0.31,0.50,-0.05,0.11,-0.01,48.25,-70.69,3.31,-0.62,1.06,-0.06,3,2
1772818576.814497,1416210,-0.15,0.15,-0.06,-6.69,-83.12,9.19,0.25,0.88,0.00,-0.14,0.15,0.08,48.31,-70.69,3.31,0.37,0.44,0.37,3,2
1772818576.853938,1416249,-0.11,0.08,-0.04,-6.69,-83.19,9.25,0.69,1.19,-2.06,-0.08,0.09,-0.05,48.38,-70.75,3.31,-0.88,0.88,-0.37,3,2
1772818576.894028,1416289,-0.05,0.05,-0.03,-6.62,-83.25,9.31,1.12,1.50,-1.25,-0.04,0.07,-0.04,48.44,-70.75,3.31,0.19,-0.06,-0.88,3,2
1772818576.935034,1416330,-0.10,0.00,-0.03,-6.62,-83.31,9.38,1.44,1.12,-0.56,-0.07,0.07,-0.01,48.50,-70.69,3.31,0.13,0.00,-0.37,3,2
1772818576.975537,1416370,-0.11,-0.04,-0.06,-6.62,-83.31,9.44,-0.69,1.19,-0.13,-0.06,0.12,0.01,48.50,-70.69,3.31,-0.13,0.13,-0.13,3,2
1772818577.016515,1416411,-0.12,0.08,-0.10,-6.62,-83.31,9.38,-1.19,1.81,-0.62,-0.08,0.13,0.02,48.50,-70.69,3.31,-0.06,0.31,-0.13,3,2
1772818577.055717,1416450,-0.11,0.06,-0.10,-6.56,-83.31,9.31,-0.31,2.06,-0.75,-0.10,0.13,0.02,48.50,-70.69,3.31,-0.56,0.06,-0.13,3,2
1772818577.094301,1416489,-0.08,0.02,-0.07,-6.56,-83.37,9.38,0.25,2.31,-0.62,-0.09,0.12,0.00,48.50,-70.69,3.31,0.25,0.31,-0.44,2,2
1772818577.136628,1416530,-0.07,0.04,-0.09,-6.56,-83.37,9.38,0.81,2.12,-0.06,-0.08,0.07,-0.04,48.50,-70.69,3.31,0.62,0.44,-0.37,2,1
1772818577.176078,1416571,-0.07,0.01,-0.08,-6.56,-83.37,9.38,-0.62,2.12,0.00,-0.08,0.12,0.06,48.50,-70.75,3.37,-0.13,0.62,0.44,2,1
1772818577.217230,1416612,-0.12,0.08,-0.06,-6.56,-83.37,9.31,-1.31,1.44,-0.19,-0.09,0.13,-0.03,48.63,-70.75,3.37,-0.06,1.81,0.37,2,1
1772818577.256660,1416651,-0.13,0.09,-0.06,-6.56,-83.37,9.25,-1.12,1.94,-0.62,-0.14,0.10,-0.06,48.75,-70.81,3.31,0.13,2.19,1.19,2,1
1772818577.295493,1416690,-0.15,0.17,-0.01,-6.56,-83.37,9.25,-0.50,1.81,-0.13,-0.12,0.10,0.11,48.81,-70.87,3.31,0.69,0.56,0.37,2,2
1772818577.336353,1416731,-0.19,0.14,-0.05,-6.50,-83.44,9.25,1.56,3.12,-1.37,0.00,0.14,0.02,48.63,-70.87,3.37,2.12,-0.69,1.50,3,3
1772818577.376909,1416772,-0.18,0.00,-0.06,-6.44,-83.50,9.38,1.56,4.87,-1.31,-0.11,0.02,0.29,48.31,-70.87,3.31,2.06,-2.44,1.50,4,4
1772818577.418372,1416813,-0.03,-0.02,-0.22,-173.50,-83.50,9.44,0.31,7.25,-1.62,0.00,0.14,-0.13,48.00,-70.94,3.31,-0.37,0.50,2.25,4,4
1772818577.458382,1416853,0.02,-0.06,-0.20,-173.62,-83.56,9.50,-1.12,5.87,-2.62,-0.10,0.14,0.03,47.75,-70.94,3.19,-1.31,-1.62,2.19,5,4
1772818577.497540,1416892,-0.04,0.01,-0.20,-173.69,-83.69,9.50,-2.69,3.56,-1.44,-0.14,0.20,-0.10,47.56,-71.06,3.00,-0.75,-0.81,2.44,5,5
1772818577.538076,1416933,0.06,0.05,-0.10,-173.75,-83.69,9.44,-2.12,1.31,-2.12,-0.05,0.16,-0.19,47.38,-71.12,2.87,-0.88,-1.94,1.06,6,5
1772818577.577812,1416973,0.02,0.12,-0.09,-173.81,-83.75,9.38,-0.94,-0.50,-0.25,-0.02,0.10,-0.15,47.06,-71.06,2.81,0.56,-3.75,0.13,6,5
1772818577.618711,1417014,-0.05,0.05,-0.07,-173.81,-83.75,9.38,0.25,-1.81,0.75,-0.05,0.11,-0.10,46.81,-71.00,2.81,0.56,-2.56,0.37,6,5
1772818577.657914,1417053,-0.15,0.11,-0.02,-173.75,-83.69,9.38,-0.44,-2.44,0.69,-0.10,0.09,0.04,46.50,-71.00,2.75,0.69,-2.69,0.69,6,5
1772818577.698227,1417093,-0.17,0.15,-0.06,-173.75,-83.69,9.31,-0.50,-1.00,-0.94,-0.13,0.13,0.06,46.19,-70.94,2.75,1.62,-2.81,0.50,5,4
1772818577.738577,1417133,-0.02,0.10,-0.13,-173.75,-83.75,9.38,1.19,-0.37,-1.25,-0.06,0.14,0.00,45.94,-70.87,2.75,0.31,-1.62,0.62,6,3
1772818577.778757,1417173,-0.01,-0.01,-0.15,-173.81,-83.75,9.50,1.56,0.06,-0.69,-0.06,0.17,0.09,45.75,-70.87,2.69,-0.06,-0.94,0.94,5,2
1772818577.819205,1417214,0.03,0.00,-0.19,-173.81,-83.81,9.56,-0.06,-2.06,-1.50,-0.08,0.21,0.00,45.56,-70.94,2.62,-0.06,-0.37,0.69,5,2
1772818577.858456,1417253,0.05,-0.06,-0.12,-173.94,-83.87,9.63,0.50,-6.31,-1.94,-0.09,0.12,-0.13,45.56,-71.00,2.50,-3.94,-0.50,1.44,5,2
1772818577.897625,1417292,-0.07,-0.07,0.00,-174.00,-83.94,9.75,-1.75,-8.13,-1.12,-0.02,0.19,0.01,45.50,-71.00,2.31,-3.50,-1.50,1.62,4,2
1772818577.938694,1417333,-0.18,0.08,0.04,-5.94,-84.00,9.69,-3.87,-5.44,-1.37,-0.05,0.25,0.09,45.25,-71.06,2.12,-1.56,-1.19,1.31,4,2
1772818577.979176,1417374,-0.22,0.20,0.03,-5.87,-84.06,9.63,-0.56,-3.56,-1.81,-0.03,0.15,0.11,45.00,-71.06,2.06,-0.75,-0.62,0.88,5,2
1772818578.019379,1417414,-0.18,0.10,0.01,-5.81,-84.12,9.69,2.31,-3.19,-1.25,-0.05,0.15,-0.04,44.94,-71.06,2.00,-0.75,-1.37,-0.19,4,2
1772818578.058332,1417453,-0.19,0.00,0.00,-5.81,-84.12,9.88,2.06,-2.06,-1.00,-0.04,0.12,0.02,44.88,-71.00,1.94,-1.87,-0.69,-1.12,5,2
1772818578.098575,1417493,-0.10,-0.01,-0.02,-5.75,-84.19,9.94,0.62,-0.31,-0.50,-0.07,0.06,0.02,44.88,-70.94,2.00,-1.19,-1.50,-1.69,5,2
1772818578.139461,1417534,-0.15,0.07,-0.04,-5.75,-84.12,9.88,-0.50,-0.75,1.37,-0.15,0.08,0.10,44.94,-70.81,2.00,-0.25,-1.75,-1.06,6,3
1772818578.179995,1417575,-0.11,0.05,-0.01,-5.81,-84.06,9.88,0.56,-0.37,0.88,-0.03,0.07,-0.03,44.94,-70.75,2.06,-0.50,-1.56,-1.62,6,3
1772818578.220035,1417615,-0.12,0.00,0.00,-5.87,-84.06,9.81,-0.88,1.00,2.56,-0.08,0.11,0.05,44.94,-70.69,2.06,-0.13,-1.06,-1.44,7,2
1772818578.258915,1417654,-0.14,0.08,-0.01,-6.00,-83.94,9.63,-1.44,1.25,2.19,-0.06,0.12,0.00,44.94,-70.69,2.12,0.69,-0.88,-0.75,8,3
1772818578.298113,1417693,-0.17,0.15,0.02,-6.06,-83.87,9.50,-1.56,2.00,1.56,-0.09,0.11,0.07,44.88,-70.69,2.12,0.25,-0.62,-0.44,9,3
1772818578.339551,1417735,-0.19,0.16,0.02,-6.06,-83.81,9.44,-0.37,3.50,-0.06,-0.04,0.17,0.05,44.81,-70.62,2.06,0.00,-1.00,-0.19,9,3
1772818578.380280,1417775,-0.13,0.14,-0.07,-6.06,-83.87,9.38,0.62,4.12,-1.50,-0.06,0.15,0.10,44.69,-70.62,2.06,-0.13,-0.56,-0.50,9,5
1772818578.420585,1417816,-0.09,0.04,-0.07,-173.94,-83.94,9.50,1.87,4.56,-1.87,-0.05,0.13,0.05,44.69,-70.62,2.06,0.13,-0.25,-0.94,9,7
1772818578.459855,1417855,-0.02,-0.01,-0.12,-174.00,-84.00,9.63,2.00,3.56,-1.50,-0.04,0.14,0.00,44.69,-70.62,2.12,0.06,-0.37,-0.69,10,8
1772818578.499212,1417894,-0.07,-0.03,-0.11,-174.06,-84.00,9.75,1.00,2.37,-1.06,-0.05,0.11,0.00,44.75,-70.62,2.12,-0.44,-0.19,-0.56,10,8
1772818578.540478,1417935,-0.08,0.00,-0.08,-174.06,-84.06,9.75,-0.50,1.87,-0.50,-0.05,0.06,0.06,44.75,-70.62,2.12,-0.75,0.50,-0.56,10,8
1772818578.581189,1417976,-0.09,0.05,-0.09,-174.06,-84.06,9.69,-1.37,1.94,-0.13,-0.07,0.11,0.02,44.75,-70.62,2.06,-0.75,0.50,-0.50,9,8
1772818578.621463,1418016,-0.15,0.11,-0.05,-174.06,-84.06,9.63,-0.62,1.44,0.19,-0.06,0.07,0.06,44.75,-70.62,2.06,-0.50,0.50,-0.31,9,8
1772818578.660581,1418055,-0.14,0.06,-0.03,-174.06,-84.00,9.63,-0.62,2.44,0.06,-0.07,0.10,0.05,44.69,-70.62,2.06,-0.62,0.19,-0.25,9,7
1772818578.699695,1418095,-0.10,0.09,-0.07,-174.06,-84.00,9.63,0.00,2.12,-0.06,-0.06,0.11,0.08,44.75,-70.62,2.06,-0.31,0.69,0.06,9,7
1772818578.741121,1418136,-0.08,0.08,-0.09,-174.06,-84.00,9.63,-0.37,3.31,-1.00,0.00,0.11,0.02,44.81,-70.69,2.06,-0.56,1.62,0.13,9,6
1772818578.781688,1418177,-0.08,0.07,-0.10,-174.12,-84.06,9.63,-1.00,3.31,-1.06,-0.12,0.12,0.05,44.94,-70.75,2.06,-0.69,1.81,0.37,9,4
1772818578.822061,1418217,0.00,0.13,-0.11,-174.19,-84.06,9.69,0.69,1.81,-2.31,-0.04,0.12,-0.14,45.06,-70.81,2.00,-0.06,1.44,-0.44,8,2
1772818578.861230,1418256,0.13,0.05,-0.04,-174.25,-84.12,9.75,1.87,-0.13,-1.00,-0.04,0.14,-0.18,45.13,-70.81,2.06,1.31,-0.06,-1.25,7,1
1772818578.900403,1418295,0.04,0.09,-0.02,-174.25,-84.12,9.88,2.06,-2.19,-0.44,-0.05,0.07,-0.04,45.13,-70.81,2.12,2.12,0.00,-1.56,7,1
1772818578.941639,1418337,-0.05,0.06,-0.03,-174.25,-84.19,10.00,2.06,-1.94,-0.81,-0.07,0.07,0.06,45.19,-70.75,2.31,2.19,0.37,-1.75,6,1
1772818578.982334,1418377,-0.21,0.02,0.00,-174.31,-84.25,10.13,2.75,-1.75,-1.50,-0.08,0.02,0.11,45.25,-70.75,2.44,2.12,0.37,-1.69,6,1
1772818579.023251,1418418,-0.25,0.00,-0.02,-174.37,-84.31,10.31,1.87,-0.19,-1.94,-0.05,0.00,0.19,45.25,-70.69,2.50,1.00,0.25,-1.00,5,1
1772818579.062206,1418457,-0.23,-0.02,-0.05,-174.44,-84.37,10.44,0.62,2.69,-1.50,0.00,0.08,0.03,45.44,-70.69,2.56,1.00,1.56,-1.19,4,1
1772818579.101450,1418496,-0.08,0.03,-0.11,-174.50,-84.37,10.44,-0.25,3.25,-0.13,-0.05,0.08,0.04,45.50,-70.62,2.69,2.44,0.75,-1.25,5,1
1772818579.142649,1418538,-0.02,0.03,-0.12,-174.50,-84.37,10.44,-0.19,3.06,0.56,-0.05,0.08,0.05,45.44,-70.62,2.81,2.00,0.31,-0.62,3,1
1772818579.183183,1418578,-0.04,0.03,-0.10,-174.50,-84.31,10.44,0.00,1.87,0.56,-0.08,0.09,0.05,45.44,-70.62,2.87,0.88,0.88,0.06,4,1
1772818579.223938,1418619,-0.09,0.04,-0.06,-174.50,-84.31,10.44,-0.56,1.56,0.06,-0.08,0.10,0.00,45.56,-70.69,2.87,0.06,1.19,0.06,3,1
1772818579.263314,1418658,-0.07,0.05,-0.07,-174.50,-84.31,10.38,-1.25,1.31,-0.50,-0.09,0.12,0.00,45.63,-70.69,2.87,-0.37,0.75,-0.25,4,2
1772818579.303698,1418699,-0.04,0.05,-0.06,-174.50,-84.31,10.31,-0.44,0.69,-0.19,-0.04,0.10,0.00,45.63,-70.69,2.87,-0.25,0.13,-0.50,4,2
1772818579.344087,1418739,-0.08,0.04,-0.07,-174.50,-84.31,10.31,0.37,0.19,0.44,-0.04,0.08,0.03,45.63,-70.69,2.87,-0.62,0.31,-0.69,4,2
1772818579.384274,1418779,-0.13,0.03,-0.04,-174.50,-84.31,10.31,-0.06,0.75,0.37,-0.09,0.00,0.07,45.69,-70.69,2.87,-0.81,0.44,-0.19,4,2
1772818579.425270,1418820,-0.15,0.01,-0.11,-174.50,-84.25,10.31,-1.00,1.56,0.25,-0.07,0.11,0.02,45.81,-70.75,2.81,-2.25,1.37,0.19,4,2
1772818579.464853,1418860,-0.13,0.11,-0.07,-174.50,-84.25,10.25,-1.62,1.75,0.06,-0.12,0.11,0.00,45.94,-70.75,2.75,-1.75,0.88,0.56,4,2
1772818579.505834,1418901,-0.01,0.03,-0.06,-174.50,-84.25,10.25,-0.44,0.75,0.00,-0.02,0.10,-0.05,46.06,-70.75,2.69,-1.81,0.19,-0.31,3,1
1772818579.546485,1418941,-0.07,0.04,-0.08,-174.50,-84.25,10.19,-0.62,0.00,1.12,-0.05,0.06,0.03,46.13,-70.75,2.69,-0.88,0.00,-0.37,3,1
1772818579.585687,1418981,-0.07,0.04,-0.08,-174.44,-84.19,10.13,-0.50,0.56,1.06,-0.03,0.11,0.00,46.19,-70.75,2.62,-0.81,0.37,-0.25,3,2
1772818579.626511,1419022,-0.07,0.05,-0.10,-174.37,-84.19,10.06,-1.25,0.50,1.12,-0.07,0.03,0.04,46.19,-70.75,2.62,-0.56,0.56,0.06,3,2
1772818579.666591,1419062,-0.07,0.08,-0.12,-174.37,-84.12,10.00,-1.37,0.69,1.00,-0.05,0.11,-0.02,46.25,-70.75,2.62,-0.88,0.75,0.25,2,1
1772818579.707422,1419102,-0.07,0.08,-0.09,-174.31,-84.12,9.94,-0.75,-0.25,0.19,-0.10,0.08,0.02,46.31,-70.75,2.62,-1.12,0.56,-0.19,2,2
1772818579.747755,1419142,-0.04,0.06,-0.09,-174.31,-84.06,9.88,-0.37,-1.19,1.12,-0.04,0.10,-0.10,46.31,-70.81,2.56,-0.56,0.50,-0.56,2,2
1772818579.786838,1419182,-0.04,0.09,-0.09,-174.25,-84.06,9.81,-0.56,-1.62,1.12,-0.05,0.06,-0.01,46.38,-70.75,2.56,0.19,-0.13,-0.56,2,2
1772818579.827602,1419223,-0.05,0.06,-0.09,-174.19,-84.00,9.81,-0.75,-2.19,0.94,-0.09,0.08,0.00,46.38,-70.75,2.62,0.25,-0.25,-0.56,2,3
1772818579.867922,1419263,-0.11,0.15,-0.05,-174.19,-84.00,9.75,-0.56,-3.19,0.56,-0.07,0.10,0.01,46.44,-70.75,2.62,0.13,-0.31,-0.81,2,3
1772818579.908423,1419303,-0.10,0.12,-0.06,-174.19,-84.06,9.75,0.00,-2.50,0.00,-0.06,0.08,0.01,46.50,-70.69,2.69,0.19,0.13,-0.88,2,3
1772818579.949256,1419344,-0.07,0.07,-0.03,-174.19,-84.06,9.81,0.81,-1.87,-0.13,-0.09,0.11,-0.03,46.63,-70.69,2.69,0.37,0.44,-1.00,4,3
1772818579.988140,1419383,-0.06,0.04,-0.01,-174.19,-84.06,9.81,0.81,-2.06,0.00,-0.07,0.08,-0.04,46.69,-70.69,2.75,0.13,-0.31,-0.94,4,3
1772818580.029091,1419424,-0.14,0.02,0.00,-174.19,-84.12,9.81,-0.37,-2.00,0.31,-0.06,0.09,0.01,46.75,-70.62,2.75,-0.13,-0.37,-0.88,4,3
1772818580.069937,1419465,-0.14,0.04,-0.03,-174.19,-84.12,9.81,-0.88,-0.25,0.06,-0.07,0.07,0.02,46.75,-70.62,2.81,0.50,-0.25,-0.25,4,3
1772818580.111953,1419507,-0.16,0.09,-0.06,-174.19,-84.12,9.81,-0.94,1.00,0.25,-0.08,0.14,0.05,46.75,-70.62,2.81,-0.06,0.37,-0.31,4,2
1772818580.153265,1419548,-0.11,0.12,-0.07,-174.19,-84.12,9.75,0.06,0.44,-0.88,-0.08,0.11,0.02,46.75,-70.62,2.81,-0.37,0.13,-0.25,4,2
1772818580.195309,1419590,-0.06,0.04,-0.04,-174.19,-84.12,9.81,0.88,0.62,-0.19,-0.06,0.08,0.00,46.75,-70.62,2.81,0.69,-0.94,-0.94,5,2
1772818580.236339,1419631,-0.10,0.05,-0.08,-174.19,-84.12,9.81,0.88,1.06,0.06,-0.06,0.07,0.00,46.75,-70.56,2.81,0.44,-0.37,-0.56,6,2
1772818580.277051,1419672,-0.03,0.00,-0.07,-174.19,-84.12,9.88,-0.75,0.81,0.13,-0.07,0.10,0.00,46.75,-70.56,2.81,-0.44,0.06,0.25,6,2
1772818580.316268,1419711,-0.11,0.05,-0.12,-174.19,-84.12,9.81,-1.37,0.31,-0.13,-0.08,0.09,0.01,46.75,-70.56,2.81,-0.50,0.00,0.13,7,2
1772818580.356550,1419752,-0.11,0.13,-0.10,-174.19,-84.12,9.75,-1.25,0.06,-0.44,-0.09,0.12,0.05,46.81,-70.56,2.81,-0.37,0.13,0.00,6,2
1772818580.397952,1419793,-0.13,0.10,-0.08,-174.19,-84.12,9.75,0.31,0.50,-0.06,-0.06,0.09,0.03,46.81,-70.56,2.81,0.19,0.06,-0.06,6,2
1772818580.437999,1419833,-0.01,0.08,-0.08,-174.19,-84.12,9.75,0.81,0.75,-0.06,-0.07,0.08,0.01,46.75,-70.56,2.81,0.69,-0.13,-0.19,7,2
1772818580.479135,1419874,-0.05,0.05,-0.09,-174.25,-84.12,9.81,0.62,-0.37,-0.81,-0.08,0.10,0.02,46.75,-70.56,2.81,-0.44,0.13,-0.13,8,1
1772818580.519759,1419915,-0.08,0.03,-0.04,-174.25,-84.12,9.81,-0.13,-0.13,-0.94,-0.08,0.11,0.00,46.81,-70.56,2.81,-0.75,0.00,0.19,8,1
1772818580.560412,1419955,-0.09,0.04,-0.03,-174.31,-84.19,9.88,-0.19,-0.25,-0.75,-0.08,0.08,0.01,46.81,-70.56,2.81,-0.44,0.25,0.37,8,1
1772818580.601287,1419996,-0.09,0.07,-0.03,-174.31,-84.19,9.88,-1.00,0.62,-0.19,-0.07,0.11,0.02,46.81,-70.56,2.81,0.50,-0.44,0.19,7,1
1772818580.640369,1420035,-0.14,0.12,-0.04,-174.31,-84.19,9.81,-0.44,0.75,-0.50,-0.08,0.14,0.01,46.75,-70.56,2.81,0.37,-0.44,-0.13,6,1
1772818580.681365,1420076,-0.08,0.07,-0.05,-174.31,-84.19,9.81,0.00,1.31,-0.81,-0.07,0.11,0.00,46.75,-70.56,2.81,0.00,-0.50,-0.06,6,1
1772818580.722168,1420117,-0.10,0.08,-0.03,-174.37,-84.25,9.88,0.31,1.31,-1.12,-0.03,0.17,0.01,46.69,-70.56,2.81,0.13,-0.94,-0.37,5,2
1772818580.763478,1420158,-0.08,0.06,-0.05,-174.44,-84.25,9.94,0.56,1.81,-1.69,-0.07,0.11,0.05,46.56,-70.50,2.81,-0.13,-0.94,-0.31,4,2
1772818580.805072,1420200,-0.11,0.06,-0.08,-174.50,-84.31,10.00,0.94,2.31,-0.69,-0.14,0.08,0.08,46.50,-70.50,2.81,0.62,-1.06,-0.31,3,3
1772818580.846958,1420242,-0.05,0.05,-0.12,-174.50,-84.31,10.06,1.25,1.87,-1.31,-0.03,0.08,-0.07,46.44,-70.44,2.81,-0.44,-1.81,-0.75,2,3
1772818580.888525,1420283,-0.01,0.03,-0.10,-174.56,-84.31,10.13,-0.31,1.19,-0.13,-0.05,0.12,-0.01,46.31,-70.37,2.81,0.06,-2.12,-0.81,1,4
1772818580.929326,1420324,-0.09,0.08,-0.05,-174.56,-84.31,10.13,-0.75,0.50,-0.06,-0.07,0.09,0.06,46.19,-70.31,2.87,0.62,-1.56,-0.56,2,4
1772818580.969853,1420365,-0.16,0.14,-0.04,-174.56,-84.31,10.06,0.25,1.50,-0.25,-0.07,0.11,0.07,46.13,-70.25,2.87,0.81,-1.50,-0.69,2,5
1772818581.008842,1420404,-0.18,0.15,-0.03,-174.56,-84.31,10.06,1.25,2.50,-0.56,-0.11,0.12,0.08,46.00,-70.19,2.94,1.12,-2.06,-0.94,2,5
1772818581.050067,1420445,-0.10,0.14,-0.07,-174.56,-84.31,10.19,2.69,3.19,-1.44,-0.04,0.11,-0.03,45.88,-70.12,2.94,1.31,-2.37,-1.00,1,5
1772818581.089854,1420485,-0.06,0.09,0.00,-174.62,-84.31,10.38,5.12,1.75,0.50,-0.11,0.10,0.00,45.69,-70.00,3.00,2.00,-3.19,-1.25,1,5
1772818581.130402,1420525,-0.07,0.03,-0.02,-174.62,-84.25,10.56,5.50,2.44,0.75,-0.07,0.15,-0.05,45.50,-69.87,3.12,2.06,-3.00,-1.31,2,5
1772818581.169650,1420565,-0.10,0.00,-0.01,-174.62,-84.19,10.69,2.69,2.75,-0.19,-0.15,0.14,-0.01,45.25,-69.75,3.19,0.37,-3.62,-1.25,2,4
1772818581.208923,1420604,-0.13,0.05,0.00,-174.62,-84.19,10.81,1.25,3.25,-0.69,-0.12,0.12,0.00,45.13,-69.69,3.19,1.87,-3.19,-0.94,2,4
1772818581.250338,1420645,-0.13,0.05,-0.04,-174.62,-84.12,10.81,1.06,4.56,-0.75,-0.09,0.14,0.03,44.88,-69.56,3.25,1.00,-2.94,-0.81,2,3
1772818581.290847,1420686,-0.09,0.04,-0.06,-174.69,-84.06,10.88,1.25,5.25,-0.81,-0.07,0.14,0.07,44.75,-69.44,3.31,1.12,-2.50,-0.75,3,3
1772818581.331337,1420726,-0.08,0.04,-0.10,-174.69,-84.00,10.94,1.12,6.25,-0.81,-0.07,0.11,0.04,44.56,-69.37,3.37,1.06,-2.19,-0.62,3,3
1772818581.370345,1420765,-0.08,0.04,-0.09,-174.75,-83.87,11.00,0.19,6.81,-0.75,-0.08,0.17,0.06,44.44,-69.31,3.37,0.44,-1.81,-0.56,3,2
1772818581.409739,1420805,-0.10,0.05,-0.13,-174.75,-83.81,11.00,-0.37,7.87,-1.19,-0.09,0.12,0.08,44.38,-69.31,3.37,0.62,-1.19,-0.44,3,2
1772818581.450848,1420846,-0.13,0.06,-0.15,-174.81,-83.62,11.00,-0.94,8.56,-1.25,-0.16,0.14,0.11,44.31,-69.25,3.37,0.31,-0.31,0.00,4,2
1772818581.491481,1420886,0.00,0.09,-0.17,-174.87,-83.50,11.00,-0.25,8.13,-1.75,-0.08,0.13,-0.08,44.38,-69.25,3.37,-0.81,0.19,-0.19,4,2
1772818581.531618,1420927,0.04,0.03,-0.15,-174.94,-83.37,11.06,0.19,6.37,-1.37,-0.05,0.14,0.00,44.38,-69.25,3.37,-0.25,-0.75,-0.75,4,2
1772818581.570870,1420966,0.03,0.08,-0.12,-175.00,-83.25,11.06,-0.19,4.75,-0.37,-0.02,0.12,-0.01,44.44,-69.25,3.37,-0.13,0.06,-0.44,4,2
1772818581.610226,1421005,-0.06,0.08,-0.12,-175.00,-83.12,11.06,-0.25,4.31,-0.37,-0.10,0.13,0.04,44.44,-69.25,3.37,0.00,0.56,0.06,4,2
1772818581.651493,1421047,-0.15,0.10,-0.12,-134.12,-83.06,11.06,-0.13,4.31,-0.94,-0.10,0.13,0.03,44.44,-69.25,3.37,0.25,0.88,0.13,4,2
1772818581.692154,1421087,-0.12,0.13,-0.15,-135.50,-82.94,11.06,0.00,5.19,-2.31,-0.08,0.14,0.04,44.50,-69.31,3.37,-0.13,1.75,0.81,3,1
1772818581.732244,1421127,-0.06,0.09,-0.13,-137.31,-82.87,11.19,1.56,5.31,-3.31,-0.06,0.13,0.01,44.63,-69.37,3.37,0.06,2.56,0.88,3,1
1772818581.771359,1421167,0.09,0.04,-0.11,-139.06,-82.81,11.38,2.37,3.25,-1.56,-0.07,0.18,-0.07,44.75,-69.44,3.37,0.56,1.62,0.56,3,1
1772818581.810947,1421206,0.05,0.06,-0.16,-139.81,-82.75,11.50,2.06,1.44,-0.56,-0.11,0.16,0.01,44.81,-69.50,3.37,0.13,1.06,0.31,3,1
1772818581.852315,1421247,-0.01,0.04,-0.16,-140.00,-82.75,11.56,0.88,-0.50,-0.31,-0.11,0.15,0.03,44.88,-69.50,3.37,0.00,0.94,-0.19,3,0
1772818581.892849,1421288,0.00,0.05,-0.16,-139.94,-82.75,11.56,0.25,-0.56,-0.19,-0.10,0.14,0.00,44.94,-69.56,3.37,-0.31,0.69,-0.56,3,1
1772818581.933491,1421328,-0.02,0.06,-0.14,-139.75,-82.81,11.56,-0.25,-1.44,-0.19,-0.06,0.15,0.03,45.06,-69.56,3.37,-0.62,0.75,-0.69,5,1
1772818581.972396,1421367,-0.04,0.07,-0.14,-139.44,-82.81,11.56,-0.37,-1.44,0.19,-0.07,0.09,0.00,45.13,-69.56,3.37,-0.75,0.94,-0.44,5,1
1772818582.012073,1421407,-0.04,0.08,-0.09,-139.00,-82.87,11.56,-0.37,-1.62,0.75,-0.07,0.13,0.05,45.19,-69.56,3.37,-0.75,1.00,-0.37,5,1
1772818582.053235,1421448,-0.11,0.09,-0.07,-138.37,-82.87,11.50,-0.94,-1.31,0.94,-0.08,0.08,0.07,45.31,-69.62,3.37,-0.31,1.06,0.00,6,1
1772818582.093728,1421489,-0.10,0.09,-0.12,-137.81,-82.87,11.44,-1.50,-0.81,0.94,-0.11,0.18,0.03,45.44,-69.69,3.37,-1.00,1.69,-0.19,6,1
1772818582.134153,1421529,-0.02,0.11,-0.08,-137.25,-82.94,11.38,-0.50,-1.87,-0.19,-0.12,0.12,-0.05,45.50,-69.75,3.37,-1.19,1.56,0.19,7,2
1772818582.173062,1421568,0.01,0.08,-0.08,-136.75,-83.00,11.38,0.06,-3.00,0.50,-0.05,0.15,-0.09,45.63,-69.75,3.31,-1.00,0.37,-0.75,8,2
1772818582.212681,1421608,-0.01,0.11,-0.07,-135.81,-83.06,11.31,-0.19,-3.50,1.19,-0.06,0.15,0.00,45.63,-69.75,3.31,-0.44,0.37,-0.50,8,2
1772818582.253941,1421649,-0.07,0.07,-0.06,-175.12,-83.12,11.31,-0.25,-3.31,1.06,-0.12,0.12,0.01,45.63,-69.81,3.31,-0.44,0.81,-0.19,9,2
1772818582.294415,1421689,-0.11,0.10,-0.08,-175.06,-83.19,11.25,-0.31,-2.75,0.88,-0.09,0.11,0.02,45.63,-69.81,3.31,-0.25,0.69,-0.25,9,3
1772818582.334664,1421730,-0.13,0.12,-0.11,-175.06,-83.25,11.25,-0.69,-2.56,0.06,-0.08,0.15,0.01,45.63,-69.87,3.31,-0.44,0.56,0.06,8,3
1772818582.373866,1421769,-0.11,0.10,-0.07,-175.06,-83.31,11.25,0.13,-1.81,0.00,-0.09,0.09,0.01,45.63,-69.87,3.25,-0.50,0.44,-0.37,8,3
1772818582.413420,1421808,-0.08,0.09,-0.04,-175.06,-83.37,11.25,0.37,-1.50,0.50,-0.07,0.12,-0.02,45.63,-69.87,3.25,-0.31,0.69,-0.13,9,4
1772818582.454473,1421850,-0.03,0.07,-0.08,-175.06,-83.37,11.25,-0.06,-1.56,0.50,-0.09,0.09,0.00,45.63,-69.87,3.25,-0.13,0.37,-0.13,9,4
1772818582.495320,1421890,-0.05,0.09,-0.09,-175.06,-83.44,11.25,-0.62,-1.94,0.19,-0.08,0.13,-0.02,45.63,-69.94,3.25,-0.19,0.19,-0.06,9,4
1772818582.535439,1421930,-0.05,0.11,-0.07,-175.06,-83.44,11.25,-0.56,-1.87,0.13,-0.09,0.12,0.00,45.63,-69.94,3.25,-0.44,0.25,-0.13,8,4
1772818582.574385,1421970,-0.07,0.10,-0.07,-175.06,-83.50,11.25,0.19,-1.87,0.13,-0.08,0.11,0.00,45.63,-69.94,3.19,-0.62,0.13,-0.44,8,5
1772818582.614220,1422009,-0.07,0.09,-0.04,-175.06,-83.56,11.25,0.44,-1.69,0.13,-0.07,0.11,-0.03,45.56,-69.94,3.19,-0.50,0.00,-0.31,8,5
1772818582.655269,1422050,-0.09,0.09,-0.06,-175.06,-83.62,11.25,0.19,-1.19,0.50,-0.06,0.09,0.00,45.56,-69.94,3.19,-0.19,0.06,-0.31,8,5
1772818582.695883,1422091,-0.09,0.09,-0.07,-175.06,-83.62,11.25,-0.50,-1.00,0.50,-0.06,0.03,0.00,45.56,-69.94,3.19,-0.06,-0.06,-0.06,8,4
1772818582.736175,1422131,-0.09,0.09,-0.07,-175.06,-83.62,11.25,-0.94,-0.56,0.25,-0.06,0.13,-0.01,45.56,-70.00,3.19,-1.06,0.37,-0.06,8,4
1772818582.776418,1422171,-0.10,0.18,-0.08,-175.06,-83.62,11.19,-0.56,-0.69,-0.25,-0.12,0.10,-0.03,45.56,-70.00,3.19,-0.06,0.31,0.37,8,4
1772818582.816672,1422211,-0.02,0.08,-0.04,-175.06,-83.69,11.25,0.37,-0.56,-0.81,-0.06,0.10,-0.08,45.56,-70.00,3.19,-0.75,0.19,-0.69,8,3
1772818582.856950,1422252,-0.01,0.09,-0.05,-175.06,-83.69,11.25,0.62,-1.06,0.81,-0.03,0.07,-0.03,45.56,-70.00,3.19,0.00,-0.06,-0.50,7,3
1772818582.896486,1422292,-0.07,0.05,-0.08,-175.06,-83.69,11.25,0.06,-0.75,0.69,-0.08,0.08,0.00,45.56,-70.00,3.19,0.13,0.31,0.06,7,3
1772818582.936925,1422332,-0.11,0.11,-0.08,-175.00,-83.69,11.19,-1.37,-0.75,0.75,-0.12,0.07,0.00,45.56,-70.00,3.12,-0.06,0.13,0.00,7,3
1772818582.976130,1422371,-0.06,0.13,-0.06,-175.00,-83.69,11.13,-1.37,-0.50,0.37,-0.11,0.13,0.01,45.56,-70.00,3.12,-0.06,-0.19,0.19,7,2
1772818583.016478,1422411,-0.07,0.14,-0.07,-175.00,-83.69,11.13,0.13,-0.56,-0.50,-0.08,0.09,0.02,45.50,-70.00,3.12,-0.19,0.06,-0.31,8,2
1772818583.057426,1422452,-0.05,0.10,-0.10,-175.00,-83.69,11.13,1.00,-0.56,-0.06,-0.08,0.06,0.00,45.50,-70.00,3.12,-0.19,-0.37,-0.44,7,2
1772818583.097241,1422492,-0.02,0.07,-0.09,-175.00,-83.69,11.19,0.56,-0.94,-0.06,-0.10,0.09,0.00,45.50,-70.06,3.12,0.06,-0.62,0.00,7,2
1772818583.138168,1422533,-0.08,0.08,-0.10,-175.00,-83.75,11.19,-0.13,-1.50,-0.13,-0.07,0.06,0.00,45.44,-70.00,3.12,-0.19,-0.69,-0.06,7,2
1772818583.176728,1422572,-0.07,0.09,-0.06,-175.00,-83.75,11.19,-0.50,-1.62,0.00,-0.07,0.07,0.00,45.44,-70.00,3.12,-0.19,-0.62,-0.13,6,2
1772818583.216421,1422611,-0.06,0.08,-0.07,-175.00,-83.81,11.19,-0.25,-1.44,-0.06,-0.06,0.09,0.03,45.44,-70.00,3.12,-0.44,-0.81,-0.19,6,2
1772818583.257596,1422652,-0.07,0.08,-0.08,-175.00,-83.87,11.19,-0.06,-2.00,0.25,-0.06,0.07,-0.02,45.38,-70.00,3.12,-0.31,-0.69,-0.56,7,2
1772818583.298052,1422693,-0.06,0.07,-0.07,-175.00,-83.87,11.19,-0.44,-2.00,0.62,-0.05,0.10,0.02,45.31,-70.00,3.12,-0.25,-0.50,-0.44,6,2
1772818583.338423,1422733,-0.09,0.06,-0.06,-175.00,-83.94,11.19,-0.88,-1.37,0.81,-0.06,0.12,0.04,45.31,-70.00,3.12,-0.25,-0.37,-0.31,6,2
1772818583.377300,1422772,-0.09,0.11,-0.07,-174.94,-83.94,11.13,-1.19,-1.44,0.44,-0.04,0.07,0.02,45.31,-70.00,3.12,-0.37,0.06,0.06,6,2
1772818583.417185,1422812,-0.11,0.10,-0.13,-174.94,-83.94,11.06,-1.31,-1.06,0.56,-0.13,0.12,0.04,45.31,-70.00,3.12,-0.19,-0.25,0.31,6,2
1772818583.458602,1422853,-0.06,0.13,-0.08,-174.94,-83.94,11.00,-0.25,-1.75,-0.19,-0.06,0.09,-0.06,45.31,-70.00,3.12,-0.69,-0.37,-0.31,6,2
1772818583.498852,1422894,-0.05,0.09,-0.07,-174.94,-84.00,11.00,-0.06,-2.12,0.88,-0.06,0.08,0.04,45.31,-69.94,3.12,0.31,-1.37,-0.69,5,2
1772818583.539135,1422934,-0.09,0.09,-0.07,-174.87,-84.00,11.00,-0.31,-1.75,0.81,-0.04,0.06,0.01,45.25,-69.94,3.12,0.06,-0.13,-0.19,5,2
1772818583.578298,1422973,-0.11,0.08,-0.07,-174.87,-84.00,10.94,-0.75,-1.37,0.44,-0.07,0.12,-0.04,45.25,-69.94,3.12,-0.69,0.44,0.37,5,2
1772818583.617621,1423013,-0.15,0.10,-0.06,-174.87,-84.06,10.88,-1.69,-1.25,0.13,-0.10,0.10,0.05,45.31,-69.94,3.06,-0.44,0.13,0.25,5,2
1772818583.659161,1423054,-0.13,0.16,-0.04,-174.87,-84.06,10.88,-0.69,-0.19,-0.50,-0.08,0.10,0.04,45.31,-69.94,3.06,-0.37,0.25,0.00,3,2
1772818583.699382,1423095,-0.11,0.11,-0.09,-174.87,-84.06,10.88,0.88,0.94,-0.31,-0.03,0.12,0.00,45.31,-69.94,3.12,-0.25,0.62,-0.06,3,2
1772818583.739462,1423135,-0.05,0.07,-0.07,-174.87,-84.06,10.88,0.88,0.81,0.06,-0.08,0.11,0.00,45.38,-70.00,3.12,0.13,0.88,0.13,3,1
1772818583.779780,1423175,-0.10,0.08,-0.06,-174.87,-84.06,10.88,-0.13,0.81,-0.25,-0.04,0.09,-0.02,45.44,-70.00,3.12,0.19,0.69,0.13,3,1
1772818583.819900,1423215,-0.09,0.11,-0.05,-174.87,-84.00,10.88,-0.44,1.06,-0.37,-0.07,0.10,0.00,45.50,-70.00,3.12,-0.25,0.75,0.00,2,1
1772818583.860341,1423255,-0.08,0.10,-0.08,-174.87,-84.00,10.88,-0.31,1.44,-0.56,-0.07,0.10,0.00,45.56,-70.00,3.12,-0.37,0.50,0.00,2,1
1772818583.900264,1423295,-0.05,0.09,-0.06,-174.87,-84.00,10.88,0.06,1.19,-0.56,-0.08,0.12,0.00,45.56,-70.00,3.12,-0.25,0.56,-0.13,3,1
1772818583.940598,1423336,-0.01,0.08,-0.10,-174.87,-83.94,10.88,0.44,1.31,-0.37,-0.09,0.10,-0.01,45.56,-70.00,3.12,0.06,0.44,-0.44,3,1
1772818583.980654,1423376,-0.09,0.06,-0.08,-174.87,-83.94,10.88,0.56,0.81,-0.13,-0.06,0.10,0.01,45.56,-70.00,3.12,0.00,0.56,-0.25,3,1
1772818584.019739,1423415,-0.12,0.08,-0.07,-174.87,-83.94,10.88,0.19,1.44,-0.19,-0.08,0.04,0.08,45.56,-70.00,3.12,0.37,0.44,0.06,3,1
1772818584.060697,1423456,-0.10,0.08,-0.14,-174.87,-83.87,10.88,-0.25,1.69,-0.31,-0.11,0.12,0.05,45.63,-70.06,3.12,0.19,0.31,-0.06,3,1
1772818584.100918,1423496,-0.05,0.14,-0.13,-174.87,-83.87,10.88,0.19,1.37,-1.37,-0.11,0.12,-0.05,45.69,-70.06,3.12,-1.12,0.81,0.06,3,1
1772818584.141228,1423536,0.01,0.08,-0.10,-174.94,-83.87,11.00,1.06,0.75,-1.12,-0.05,0.12,-0.03,45.69,-70.06,3.12,0.00,-0.44,-0.88,3,2
1772818584.181464,1423577,-0.06,0.08,-0.09,-175.00,-83.87,11.00,1.00,-0.44,0.19,-0.05,0.08,-0.03,45.75,-70.00,3.12,0.25,-0.06,-0.69,3,2
1772818584.221515,1423617,-0.10,0.07,-0.08,-175.00,-83.87,11.06,0.06,-0.13,0.37,-0.10,0.10,0.03,45.75,-70.00,3.12,0.06,0.50,-0.19,3,2
1772818584.261793,1423657,-0.09,0.09,-0.10,-175.00,-83.87,11.06,-1.00,-0.13,0.13,-0.09,0.11,0.04,45.75,-70.00,3.12,-0.19,0.31,-0.19,4,2
1772818584.301856,1423697,-0.09,0.12,-0.12,-175.00,-83.87,11.00,-0.75,-0.44,-0.06,-0.09,0.11,0.01,45.75,-70.00,3.12,-0.50,0.25,-0.31,2,2
1772818584.341947,1423737,-0.07,0.10,-0.10,-175.00,-83.87,11.00,0.44,-0.31,0.06,-0.05,0.11,0.00,45.75,-70.00,3.12,-0.25,0.19,-0.50,2,2
1772818584.381976,1423777,-0.04,0.07,-0.08,-174.94,-83.87,11.00,0.37,-0.56,0.81,-0.06,0.12,-0.05,45.81,-70.00,3.12,-0.19,0.31,-0.62,2,2
1772818584.422164,1423817,-0.07,0.07,-0.07,-174.94,-83.87,10.94,-0.37,-1.00,0.50,-0.09,0.09,-0.01,45.81,-70.00,3.12,-0.13,0.00,-0.31,2,2
1772818584.462407,1423858,-0.06,0.09,-0.07,-174.94,-83.87,10.94,-0.94,-1.25,0.37,-0.09,0.10,0.00,45.81,-70.00,3.12,-0.31,0.19,-0.13,2,2
1772818584.502540,1423898,-0.07,0.12,-0.06,-174.94,-83.87,10.88,-0.69,-1.00,0.31,-0.08,0.11,0.01,45.81,-70.00,3.12,-0.25,0.13,-0.25,1,2
1772818584.542789,1423938,-0.06,0.10,-0.09,-174.94,-83.94,10.88,-0.19,-1.12,0.31,-0.09,0.10,-0.01,45.81,-70.00,3.12,-0.06,0.06,-0.37,2,2
1772818584.582743,1423978,-0.05,0.09,-0.07,-174.94,-83.94,10.88,0.19,-0.75,0.56,-0.06,0.06,-0.04,45.81,-70.00,3.12,-0.37,-0.13,-0.44,2,3
1772818584.621615,1424017,0.00,0.10,-0.07,-174.94,-83.94,10.88,-0.31,-1.44,0.88,-0.04,0.08,0.00,45.81,-70.00,3.12,0.00,0.25,-0.25,2,3
1772818584.662779,1424058,-0.10,0.10,-0.07,-174.87,-83.94,10.88,-0.62,-0.75,0.75,-0.09,0.05,0.00,45.81,-70.00,3.12,0.06,-0.19,-0.13,2,4
1772818584.702981,1424098,-0.06,0.12,-0.07,-174.87,-83.94,10.81,-1.00,-0.31,0.44,-0.06,0.13,0.01,45.81,-70.00,3.12,-0.88,0.50,0.06,2,4
1772818584.743361,1424138,-0.12,0.21,-0.10,-174.87,-83.94,10.75,-0.44,-0.06,-0.50,-0.11,0.10,-0.01,45.81,-70.00,3.12,-0.19,0.44,0.56,2,4
1772818584.783596,1424179,-0.01,0.08,-0.04,-174.87,-84.00,10.81,1.06,-0.13,-0.81,-0.09,0.12,-0.10,45.88,-70.00,3.12,-0.56,-0.31,-0.69,2,4
1772818584.823648,1424219,-0.03,0.08,-0.01,-174.94,-84.00,10.88,0.88,-0.62,0.62,-0.03,0.07,-0.04,45.88,-69.94,3.12,0.25,-0.75,-0.75,2,5
1772818584.864049,1424259,-0.08,0.06,-0.05,-174.87,-84.00,10.88,-0.25,-0.88,0.50,-0.09,0.09,0.00,45.81,-69.94,3.12,0.06,-0.81,-0.19,2,5
1772818584.904036,1424299,-0.09,0.10,-0.07,-174.87,-84.00,10.88,-1.69,0.13,-0.06,-0.11,0.08,0.02,45.75,-69.94,3.12,0.00,-1.00,0.19,3,5
1772818584.943997,1424339,-0.10,0.17,-0.09,-174.87,-84.00,10.81,-0.81,0.88,-0.19,-0.10,0.13,0.03,45.69,-69.87,3.12,0.06,-0.75,0.19,2,4
1772818584.984270,1424379,-0.07,0.11,-0.09,-174.87,-84.00,10.81,0.75,0.75,-0.81,-0.08,0.14,0.01,45.69,-69.87,3.12,-0.06,-0.44,-0.25,2,4
1772818585.024261,1424420,0.02,0.08,-0.10,-174.94,-84.00,10.81,1.25,0.69,-0.37,-0.09,0.11,0.00,45.63,-69.87,3.12,0.06,-0.75,-0.31,2,4
1772818585.064669,1424460,-0.03,0.07,-0.11,-174.94,-84.00,10.88,0.50,-0.19,-0.25,-0.08,0.09,-0.01,45.63,-69.87,3.12,0.06,-0.81,-0.37,2,4
1772818585.104678,1424500,-0.07,0.08,-0.08,-174.94,-84.00,10.88,0.00,-0.94,-0.06,-0.08,0.09,-0.01,45.56,-69.87,3.12,0.00,-0.69,-0.25,2,4
1772818585.144969,1424540,-0.09,0.09,-0.08,-174.94,-84.00,10.88,-0.25,-0.62,-0.06,-0.09,0.11,0.00,45.50,-69.81,3.12,-0.31,-0.62,-0.06,2,4
1772818585.185076,1424580,-0.10,0.09,-0.07,-174.94,-84.00,10.88,-0.37,-0.56,0.19,-0.08,0.11,0.02,45.50,-69.81,3.12,-0.31,-0.56,-0.31,2,4
1772818585.225130,1424620,-0.09,0.09,-0.09,-174.94,-84.00,10.88,-0.06,0.00,0.37,-0.05,0.11,-0.02,45.50,-69.81,3.12,-0.37,-0.25,-0.37,2,4
1772818585.265235,1424660,-0.07,0.10,-0.08,-174.94,-84.00,10.88,0.00,0.00,0.31,-0.06,0.09,-0.02,45.44,-69.81,3.12,0.06,-0.37,-0.44,2,4
1772818585.305407,1424700,-0.03,0.13,-0.09,-174.94,-84.00,10.88,-0.44,-0.25,0.31,-0.08,0.11,0.00,45.44,-69.81,3.12,0.00,-0.62,-0.25,2,5
1772818585.345486,1424741,-0.03,0.11,-0.11,-174.94,-84.00,10.88,-0.13,0.00,-0.06,-0.06,0.11,0.00,45.44,-69.81,3.12,-0.25,0.00,-0.13,2,5
1772818585.385604,1424781,-0.08,0.16,-0.11,-174.94,-84.00,10.88,-0.13,-0.37,0.19,-0.15,0.10,0.04,45.44,-69.81,3.12,0.00,-0.13,0.00,2,5
1772818585.425904,1424821,-0.04,0.09,-0.07,-174.94,-84.06,10.94,0.69,-0.88,-1.06,-0.05,0.09,-0.04,45.50,-69.81,3.06,-0.44,-0.44,-0.62,2,4
1772818585.466001,1424861,-0.06,0.10,-0.03,-174.94,-84.06,10.94,0.31,-1.12,0.25,-0.06,0.08,0.00,45.50,-69.75,3.12,-0.13,-0.50,-0.44,2,4
1772818585.505740,1424901,-0.09,0.10,-0.05,-174.94,-84.06,10.94,0.06,-0.37,0.19,-0.07,0.07,0.03,45.50,-69.75,3.12,0.13,0.19,0.13,2,4
1772818585.546029,1424941,-0.09,0.11,-0.08,-174.94,-84.06,10.94,-0.81,0.25,0.37,-0.09,0.10,0.03,45.50,-69.75,3.12,-0.06,0.50,0.31,1,3
1772818585.586313,1424982,-0.10,0.14,-0.07,-174.94,-84.06,10.94,-1.25,0.75,-0.06,-0.10,0.14,0.05,45.50,-69.81,3.12,-0.13,0.19,0.19,1,3
1772818585.626296,1425022,-0.05,0.12,-0.10,-174.94,-84.06,10.88,-0.06,0.94,-0.81,-0.06,0.14,0.03,45.56,-69.81,3.12,-0.06,0.75,0.13,0,3
1772818585.666477,1425062,-0.03,0.09,-0.09,-175.00,-84.06,10.94,0.62,0.75,0.06,-0.06,0.12,-0.01,45.63,-69.81,3.12,0.06,0.94,0.00,1,2
1772818585.706498,1425102,-0.02,0.09,-0.08,-175.00,-84.06,10.94,0.31,0.25,0.50,-0.10,0.12,-0.01,45.69,-69.87,3.12,0.00,1.00,0.13,1,2
1772818585.746995,1425142,-0.08,0.11,-0.10,-175.00,-84.06,10.94,-0.88,-0.37,-0.06,-0.09,0.10,0.02,45.75,-69.87,3.12,-0.25,0.62,0.19,1,1
1772818585.786925,1425182,-0.01,0.13,-0.07,-175.00,-84.06,10.88,-0.62,0.25,-0.37,-0.09,0.15,0.00,45.75,-69.87,3.12,-0.25,0.75,0.06,1,1
1772818585.826880,1425222,-0.07,0.13,-0.07,-175.00,-84.06,10.88,0.06,0.19,0.00,-0.11,0.13,0.00,45.81,-69.87,3.12,-0.37,0.50,-0.06,1,1
1772818585.867338,1425263,-0.03,0.08,-0.07,-175.00,-84.06,10.88,0.50,0.31,-0.13,-0.08,0.13,-0.01,45.81,-69.87,3.12,-0.13,0.69,-0.19,3,1
1772818585.907334,1425303,-0.04,0.09,-0.09,-175.00,-84.06,10.88,0.13,-0.06,0.06,-0.08,0.09,-0.02,45.88,-69.87,3.12,-0.06,0.19,-0.25,3,1
1772818585.947700,1425343,-0.08,0.12,-0.11,-175.00,-84.06,10.88,-0.06,-0.44,0.31,-0.08,0.14,-0.02,45.88,-69.87,3.12,-0.19,0.37,-0.31,3,1
1772818585.987465,1425383,-0.02,0.11,-0.11,-175.00,-84.06,10.88,-0.56,-0.19,0.13,-0.07,0.10,0.00,45.88,-69.94,3.12,-0.37,0.88,0.25,4,1
1772818586.027660,1425423,-0.10,0.17,-0.08,-175.00,-84.06,10.88,-0.75,-0.25,0.50,-0.15,0.16,0.07,45.94,-69.94,3.12,0.19,0.13,0.19,4,0
1772818586.068236,1425463,-0.06,0.12,-0.08,-175.00,-84.06,10.88,0.25,-0.56,-1.12,-0.09,0.15,-0.07,46.00,-69.94,3.12,-1.31,0.88,-0.25,5,0
1772818586.108049,1425503,0.00,0.09,-0.05,-175.00,-84.12,10.94,0.69,-1.12,-0.13,-0.05,0.12,-0.04,46.06,-69.94,3.12,0.19,-0.69,-0.94,6,0
1772818586.148068,1425543,-0.10,0.10,-0.06,-175.00,-84.12,10.94,0.69,-1.00,0.50,-0.08,0.11,0.00,46.06,-69.94,3.12,0.37,-0.50,-0.50,6,1
1772818586.188086,1425583,-0.11,0.10,-0.02,-175.00,-84.12,10.94,-0.44,0.19,0.56,-0.11,0.13,0.00,46.06,-69.94,3.12,0.13,0.00,0.00,6,0
1772818586.228412,1425624,-0.10,0.15,-0.06,-175.00,-84.12,10.94,-1.25,0.44,0.00,-0.14,0.14,-0.01,46.06,-69.94,3.12,-0.37,0.13,0.06,7,1
1772818586.268956,1425664,-0.06,0.16,-0.09,-175.00,-84.12,10.88,-0.56,0.69,-0.50,-0.11,0.15,0.01,46.06,-69.94,3.12,-0.69,-0.19,-0.19,6,1
1772818586.308865,1425704,-0.07,0.09,-0.09,-175.00,-84.12,10.94,0.75,0.31,-0.44,-0.09,0.11,-0.03,46.06,-69.94,3.12,0.19,-0.06,-0.50,6,1
1772818586.348887,1425744,-0.02,0.10,-0.09,-175.00,-84.12,10.94,0.88,-0.13,0.25,-0.06,0.11,-0.04,46.06,-69.94,3.12,0.06,0.06,-0.44,7,1
1772818586.389165,1425784,-0.07,0.10,-0.09,-175.00,-84.12,10.94,0.13,-0.44,0.13,-0.09,0.11,-0.07,46.06,-69.94,3.12,-0.13,-0.06,-0.19,7,2
1772818586.429309,1425824,-0.11,0.13,-0.06,-175.00,-84.12,10.94,-0.88,-0.31,0.13,-0.09,0.12,0.00,46.06,-69.94,3.12,-0.50,-0.19,-0.06,7,2
1772818586.469538,1425865,-0.07,0.15,-0.04,-175.00,-84.12,10.94,-0.37,0.06,-0.06,-0.09,0.15,0.00,46.06,-69.94,3.12,-0.37,-0.19,-0.25,7,3
1772818586.509459,1425905,-0.08,0.13,-0.07,-175.00,-84.12,10.94,0.06,0.00,-0.13,-0.10,0.13,0.00,46.06,-69.94,3.12,-0.19,-0.06,-0.31,6,3
1772818586.549661,1425945,-0.07,0.12,-0.08,-175.00,-84.12,10.94,0.25,0.13,0.06,-0.07,0.12,-0.04,46.06,-69.94,3.12,-0.06,-0.50,-0.56,5,4
1772818586.589963,1425985,-0.08,0.10,-0.09,-175.00,-84.12,10.94,0.37,-0.06,0.25,-0.10,0.09,-0.02,46.06,-69.94,3.12,-0.06,-0.19,-0.50,5,4
1772818586.629888,1426025,-0.09,0.13,-0.06,-175.00,-84.12,10.94,-0.44,0.06,0.37,-0.10,0.10,0.02,46.06,-69.94,3.12,0.06,0.00,-0.06,5,4
1772818586.670274,1426065,-0.06,0.12,-0.11,-175.00,-84.12,10.94,-1.00,0.06,0.06,-0.08,0.13,-0.04,46.06,-69.94,3.12,-0.88,0.44,-0.06,5,4
1772818586.710076,1426105,-0.09,0.21,-0.09,-175.00,-84.12,10.88,-0.56,0.31,-0.62,-0.14,0.15,0.00,46.06,-69.94,3.12,0.25,-0.06,0.37,6,4
1772818586.750382,1426145,0.00,0.10,-0.09,-175.06,-84.12,10.88,1.06,-0.13,-0.94,-0.06,0.12,-0.06,46.06,-69.94,3.12,-0.50,-0.25,-0.56,6,3
1772818586.790600,1426186,-0.05,0.10,-0.07,-175.06,-84.12,10.94,0.94,-0.50,0.62,-0.05,0.09,-0.06,46.13,-69.87,3.12,0.25,-0.69,-0.94,6,3
1772818586.830659,1426226,-0.08,0.08,-0.04,-175.00,-84.12,10.94,-0.25,0.13,0.44,-0.08,0.12,0.01,46.13,-69.87,3.19,0.25,-0.25,-0.31,6,3
1772818586.870891,1426266,-0.07,0.16,-0.08,-175.00,-84.12,10.88,-1.62,0.69,0.13,-0.09,0.11,0.01,46.13,-69.87,3.19,-0.31,-0.19,0.00,6,2
1772818586.911139,1426306,-0.05,0.17,-0.07,-175.00,-84.06,10.81,-0.88,0.88,-0.13,-0.11,0.14,0.00,46.13,-69.87,3.19,-0.13,-0.44,0.19,7,2
1772818586.951211,1426346,-0.07,0.13,-0.09,-175.00,-84.06,10.81,0.62,1.19,-0.75,-0.10,0.15,0.02,46.13,-69.87,3.12,-0.06,-0.25,-0.19,8,1
1772818586.991242,1426386,-0.04,0.14,-0.08,-175.00,-84.00,10.81,1.19,1.06,-0.44,-0.11,0.11,-0.01,46.13,-69.87,3.12,0.50,-0.19,-0.19,8,2
1772818587.031310,1426427,0.00,0.09,-0.11,-174.94,-84.00,10.81,0.81,0.69,-0.62,-0.07,0.12,0.00,46.13,-69.87,3.12,0.31,-0.19,-0.25,8,2
1772818587.071962,1426467,-0.04,0.07,-0.05,-174.94,-83.94,10.88,0.00,-0.62,-0.44,-0.08,0.13,-0.01,46.13,-69.87,3.12,-0.31,-0.13,-0.06,9,2
1772818587.111972,1426507,-0.09,0.09,-0.09,-174.94,-83.94,10.81,-0.31,-0.13,-0.50,-0.09,0.13,0.02,46.13,-69.87,3.12,-0.19,-0.25,-0.13,8,2
1772818587.151964,1426547,-0.11,0.10,-0.07,-174.94,-83.94,10.81,0.19,0.56,-0.25,-0.09,0.11,0.00,46.13,-69.87,3.12,-0.31,0.25,-0.25,8,2
1772818587.191983,1426587,-0.06,0.09,-0.06,-174.94,-83.94,10.81,0.19,0.25,0.62,-0.10,0.10,-0.04,46.13,-69.87,3.12,-0.13,0.19,-0.06,8,3
1772818587.232303,1426627,-0.01,0.10,-0.08,-174.94,-83.94,10.81,-0.19,0.37,0.44,-0.08,0.13,-0.06,46.13,-69.87,3.12,-0.06,-0.13,-0.25,9,3
1772818587.272559,1426668,-0.03,0.12,-0.04,-174.94,-83.87,10.75,-0.94,-0.62,0.25,-0.08,0.14,0.01,46.13,-69.87,3.12,-0.19,-0.31,0.06,9,3
1772818587.312663,1426708,-0.12,0.14,-0.08,-174.87,-83.87,10.75,-0.56,-0.69,-0.19,-0.09,0.12,0.00,46.13,-69.87,3.12,0.37,-0.56,0.06,9,3
1772818587.352636,1426748,-0.13,0.12,-0.11,-174.87,-83.87,10.75,0.37,-0.19,-0.19,-0.07,0.16,0.00,46.13,-69.87,3.12,-0.56,0.00,-0.06,8,3
1772818587.393079,1426788,-0.10,0.16,-0.07,-174.87,-83.87,10.75,0.69,-0.37,-0.69,-0.11,0.14,-0.06,46.06,-69.87,3.12,-0.06,-0.44,0.31,8,3
1772818587.433080,1426828,-0.02,0.02,-0.02,-174.94,-83.87,10.81,1.19,-0.62,-0.94,-0.03,0.13,-0.09,46.13,-69.81,3.12,-0.50,-1.12,-0.81,8,3
1772818587.473322,1426868,-0.05,0.08,-0.03,-174.94,-83.94,10.88,0.31,-1.00,0.31,-0.06,0.11,0.00,46.06,-69.75,3.12,-0.06,-1.12,-0.62,7,3
1772818587.513253,1426908,-0.12,0.08,-0.04,-174.94,-83.94,10.88,-0.37,-0.88,0.19,-0.09,0.14,0.02,46.00,-69.75,3.12,0.25,-0.62,-0.13,7,3
1772818587.553378,1426949,-0.14,0.10,-0.07,-174.94,-83.94,10.81,-0.75,0.31,0.13,-0.13,0.14,0.02,46.00,-69.75,3.12,0.00,-0.50,-0.13,7,3
1772818587.593413,1426988,-0.10,0.15,-0.06,-174.94,-83.94,10.81,-0.44,0.19,-0.31,-0.12,0.19,0.01,45.94,-69.75,3.12,-0.25,-1.00,-0.19,6,1
1772818587.633639,1427029,-0.05,0.08,-0.06,-174.94,-83.94,10.81,0.44,-0.25,-0.56,-0.07,0.15,0.00,45.88,-69.75,3.12,-0.13,-0.75,-0.37,6,1
1772818587.674167,1427069,-0.03,0.07,-0.05,-174.94,-83.94,10.81,1.00,-0.94,0.06,-0.06,0.12,-0.02,45.81,-69.75,3.12,0.31,-0.44,-0.25,6,1
1772818587.714114,1427109,-0.07,0.07,-0.06,-174.87,-83.94,10.88,0.25,-1.00,-0.25,-0.07,0.12,0.03,45.75,-69.75,3.06,0.25,-0.56,-0.19,6,0
1772818587.754197,1427149,-0.10,0.10,-0.04,-174.87,-83.94,10.88,-0.25,-0.81,-0.31,-0.09,0.10,0.03,45.75,-69.75,3.06,0.25,-0.50,-0.06,6,0
1772818587.794270,1427189,-0.09,0.10,-0.03,-174.87,-84.00,10.88,0.06,-0.69,-0.37,-0.05,0.13,0.01,45.69,-69.75,3.06,-0.19,-0.37,-0.06,5,1
1772818587.834422,1427229,-0.10,0.09,-0.04,-174.87,-84.00,10.88,0.25,-0.56,-0.25,-0.07,0.13,0.02,45.63,-69.75,3.06,-0.06,-0.31,-0.13,6,1
1772818587.874622,1427270,-0.10,0.08,-0.03,-174.87,-84.00,10.88,0.37,-0.19,-0.25,-0.08,0.10,0.01,45.63,-69.81,3.06,0.00,-0.19,-0.25,7,1
1772818587.914457,1427310,-0.07,0.09,-0.05,-174.87,-84.00,10.88,0.25,0.06,-0.13,-0.06,0.09,0.00,45.63,-69.81,3.00,0.19,0.06,-0.13,7,1
1772818587.954912,1427350,-0.08,0.07,-0.07,-174.87,-84.00,10.88,0.06,0.31,-0.25,-0.06,0.16,0.04,45.56,-69.81,3.00,0.00,0.19,-0.19,7,1
1772818587.994965,1427390,-0.09,0.09,-0.04,-174.87,-84.00,10.88,-0.19,1.00,-0.56,-0.06,0.10,0.02,45.56,-69.81,3.00,-0.50,1.12,0.06,7,1
1772818588.034777,1427430,-0.12,0.08,-0.10,-174.94,-84.00,10.88,-0.13,0.81,0.00,-0.13,0.11,0.08,45.63,-69.87,3.00,0.31,0.94,0.56,6,1
1772818588.075236,1427471,0.00,0.05,-0.07,-174.94,-84.00,10.88,0.19,0.00,-0.69,-0.07,0.13,-0.08,45.69,-69.94,3.00,-0.50,0.94,0.06,6,1
1772818588.115397,1427511,-0.04,0.07,-0.05,-174.94,-84.00,10.88,-0.19,-0.75,0.69,-0.07,0.11,-0.05,45.69,-69.94,2.94,0.44,0.44,-0.37,5,1
1772818588.155221,1427551,-0.09,0.11,-0.03,-174.87,-84.00,10.88,0.44,-1.50,1.00,-0.07,0.06,0.01,45.63,-69.94,2.94,0.31,0.44,0.06,5,1
1772818588.195490,1427591,-0.16,0.07,-0.03,-174.87,-83.94,10.81,-0.19,-0.37,0.56,-0.06,0.10,0.01,45.69,-70.00,2.94,-0.19,0.62,0.00,5,0
1772818588.235880,1427631,-0.19,0.08,-0.05,-174.87,-83.94,10.81,-0.62,0.94,-0.13,-0.10,0.11,0.09,45.69,-70.00,2.94,-0.75,0.56,-0.06,4,0
1772818588.276250,1427671,-0.10,0.10,-0.04,-174.87,-83.94,10.81,-0.13,1.87,-1.31,-0.06,0.13,0.02,45.69,-70.00,2.94,-0.94,0.44,-0.37,3,0
1772818588.315977,1427711,-0.03,0.08,-0.09,-174.94,-83.94,10.88,0.62,1.62,-0.75,-0.04,0.12,0.00,45.69,-70.00,2.94,0.25,0.62,-0.56,3,0
1772818588.355874,1427751,0.04,0.04,-0.11,-174.94,-83.94,10.88,1.19,0.50,0.37,-0.05,0.10,-0.05,45.69,-70.06,2.87,0.50,0.25,-0.37,3,0
1772818588.396229,1427791,-0.04,0.03,-0.09,-174.94,-83.94,10.94,0.19,-0.37,0.62,-0.09,0.08,-0.03,45.69,-70.06,2.87,0.13,0.25,-0.13,2,0
1772818588.436452,1427831,-0.06,0.10,-0.07,-174.94,-83.94,10.88,-1.25,-0.44,0.25,-0.06,0.12,0.00,45.69,-70.06,2.87,-0.44,0.00,-0.06,2,0
1772818588.476663,1427872,-0.10,0.09,-0.06,-174.94,-83.94,10.88,-0.69,-0.81,0.06,-0.08,0.09,0.04,45.63,-70.06,2.87,-0.25,0.13,0.00,1,0
1772818588.516494,1427912,-0.12,0.10,-0.05,-174.94,-83.94,10.88,0.25,0.25,0.13,-0.09,0.10,0.06,45.63,-70.06,2.87,-0.44,0.13,-0.31,1,2
1772818588.557090,1427952,-0.08,0.07,-0.06,-174.94,-83.94,10.88,0.50,0.44,0.06,-0.09,0.07,-0.02,45.63,-70.06,2.87,-0.13,0.06,-0.56,2,2
1772818588.596887,1427992,-0.05,0.07,-0.07,-174.94,-83.94,10.88,0.25,0.19,0.13,-0.05,0.07,0.00,45.63,-70.06,2.87,-0.31,0.19,-0.37,2,2
1772818588.637005,1428032,-0.06,0.08,-0.08,-174.94,-83.94,10.88,-0.75,0.75,0.00,-0.10,0.04,0.00,45.63,-70.06,2.87,0.06,0.19,0.13,2,2
1772818588.677491,1428073,-0.09,0.10,-0.10,-174.94,-83.94,10.81,-1.00,-0.06,0.44,-0.08,0.14,0.00,45.63,-70.06,2.87,-0.37,0.31,-0.13,2,2
1772818588.717585,1428113,-0.09,0.15,-0.09,-174.94,-83.94,10.81,-0.06,-0.81,-0.69,-0.10,0.10,-0.05,45.63,-70.06,2.87,-0.75,0.75,0.13,2,2
1772818588.757686,1428153,-0.03,0.05,-0.08,-174.94,-84.00,10.88,1.12,-1.06,-0.19,-0.03,0.08,-0.07,45.69,-70.06,2.81,-0.06,-0.69,-0.69,2,2
1772818588.797946,1428193,-0.08,0.06,-0.02,-174.94,-84.00,10.88,0.50,-0.81,0.81,-0.05,0.06,-0.03,45.69,-70.06,2.87,0.25,-0.37,-0.50,2,2
1772818588.837890,1428233,-0.14,0.05,0.00,-174.94,-84.00,10.88,-0.81,-0.50,0.69,-0.08,0.08,0.04,45.69,-70.06,2.87,0.00,-0.06,-0.19,2,2
1772818588.878266,1428273,-0.13,0.09,-0.06,-174.87,-84.00,10.81,-1.75,0.75,0.62,-0.10,0.07,0.03,45.69,-70.06,2.87,-0.06,0.13,-0.13,2,3
1772818588.918254,1428313,-0.09,0.14,-0.10,-174.87,-83.94,10.75,-0.88,1.50,0.06,-0.05,0.13,0.00,45.69,-70.06,2.87,-0.13,0.25,-0.06,1,1
1772818588.958408,1428354,-0.03,0.08,-0.10,-174.87,-83.94,10.75,0.62,0.75,-0.31,-0.08,0.11,0.01,45.69,-70.06,2.87,-0.13,0.13,-0.44,1,1
1772818588.998502,1428394,-0.03,0.08,-0.09,-174.87,-83.94,10.75,0.69,-0.31,0.13,-0.07,0.10,-0.06,45.75,-70.06,2.87,0.06,0.19,-0.62,1,2
1772818589.038586,1428434,-0.04,0.07,-0.07,-174.87,-83.94,10.81,0.31,-0.88,0.31,-0.06,0.06,-0.01,45.75,-70.06,2.87,0.00,-0.25,-0.31,1,2
1772818589.079094,1428474,-0.09,0.07,-0.05,-174.87,-83.94,10.81,-0.69,-0.88,0.31,-0.08,0.07,0.01,45.75,-70.06,2.87,-0.19,-0.06,0.13,1,3
1772818589.118991,1428514,-0.12,0.10,-0.04,-174.87,-83.94,10.75,-0.56,-0.69,0.13,-0.07,0.06,0.00,45.75,-70.06,2.87,-0.31,0.13,-0.13,1,3
1772818589.159242,1428554,-0.11,0.11,-0.06,-174.87,-83.94,10.75,-0.19,-0.25,-0.06,-0.10,0.08,0.00,45.75,-70.06,2.87,-0.25,-0.25,-0.13,1,3
1772818589.199252,1428594,-0.04,0.11,-0.04,-174.87,-83.94,10.75,0.44,-0.13,-0.06,-0.08,0.07,-0.05,45.75,-70.06,2.87,-0.06,0.00,-0.25,2,3
1772818589.239152,1428634,-0.06,0.08,-0.03,-174.87,-83.94,10.75,0.31,-0.37,0.00,-0.07,0.05,-0.04,45.75,-70.00,2.87,0.06,-0.69,-0.44,2,3
1772818589.279759,1428675,-0.08,0.10,-0.04,-174.87,-83.94,10.75,-0.31,0.06,0.19,-0.07,0.05,0.01,45.69,-70.00,2.87,-0.19,-0.62,-0.31,2,4
1772818589.319635,1428715,-0.06,0.10,-0.08,-174.87,-83.94,10.75,-0.62,0.13,-0.50,-0.05,0.10,0.00,45.69,-70.00,2.87,-0.44,-0.56,0.06,2,4
1772818589.359721,1428755,-0.08,0.18,-0.12,-174.87,-83.94,10.75,-0.31,0.06,-0.31,-0.13,0.11,0.04,45.69,-70.00,2.87,0.31,-0.75,0.25,2,4
1772818589.399578,1428794,-0.08,0.13,-0.08,-174.94,-84.00,10.81,1.25,-0.13,-1.50,-0.07,0.11,-0.07,45.69,-70.00,2.87,-0.44,-0.88,-0.31,2,4
1772818589.439858,1428835,-0.02,0.07,-0.03,-174.94,-84.00,10.88,0.88,-0.25,-0.19,-0.05,0.08,0.01,45.56,-69.94,2.87,0.13,-1.44,-0.69,2,4
1772818589.480349,1428875,-0.10,0.05,-0.07,-174.94,-84.00,10.94,0.62,-0.50,-0.25,-0.07,0.06,0.02,45.50,-69.94,2.87,0.25,-1.00,-0.13,2,4
1772818589.520209,1428915,-0.12,0.10,-0.09,-174.94,-84.00,10.94,-0.56,0.19,0.25,-0.07,0.11,0.02,45.50,-69.94,2.87,0.06,-0.25,0.19,2,4
1772818589.560489,1428956,-0.09,0.12,-0.09,-174.94,-84.00,10.94,-0.81,0.31,-0.25,-0.08,0.11,0.05,45.50,-69.87,2.87,0.00,-0.69,-0.19,2,4
1772818589.600530,1428996,-0.08,0.11,-0.08,-174.94,-84.06,10.94,0.00,0.13,-0.81,-0.08,0.11,0.02,45.44,-69.87,2.87,-0.50,-0.62,-0.19,3,5
1772818589.640809,1429036,-0.01,0.09,-0.10,-175.00,-84.06,10.94,0.94,0.00,-0.31,-0.08,0.10,-0.01,45.44,-69.87,2.87,0.06,-0.69,-0.50,2,5
1772818589.680859,1429076,-0.02,0.07,-0.08,-175.00,-84.06,11.00,0.88,-0.94,0.00,-0.08,0.10,0.01,45.44,-69.87,2.87,0.00,-0.69,-0.25,2,5
1772818589.721370,1429116,-0.07,0.09,-0.09,-175.00,-84.06,11.00,-0.13,-1.19,-0.37,-0.09,0.10,0.00,45.44,-69.87,2.87,-0.06,-0.31,-0.13,2,5
1772818589.761491,1429156,-0.09,0.08,-0.04,-175.00,-84.12,11.00,-0.06,-1.19,-0.25,-0.09,0.07,0.00,45.44,-69.87,2.87,-0.13,-0.25,-0.06,2,5
1772818589.801413,1429196,-0.09,0.09,-0.07,-175.00,-84.12,11.00,0.13,-0.94,-0.25,-0.08,0.09,0.01,45.44,-69.87,2.87,-0.19,-0.25,-0.19,2,5
1772818589.841427,1429236,-0.07,0.08,-0.04,-175.00,-84.12,11.00,0.56,-0.37,-0.06,-0.05,0.09,0.00,45.44,-69.87,2.87,-0.37,-0.06,-0.37,3,5
1772818589.881690,1429277,-0.07,0.08,-0.06,-175.00,-84.12,11.00,0.13,-0.25,-0.06,-0.07,0.07,0.00,45.44,-69.87,2.87,-0.06,0.31,-0.13,3,5
1772818589.921601,1429317,-0.06,0.09,-0.08,-175.00,-84.12,11.00,-0.44,0.13,0.06,-0.06,0.13,0.00,45.44,-69.87,2.87,-0.25,0.50,0.00,3,5
1772818589.961985,1429357,-0.08,0.09,-0.10,-175.00,-84.12,11.00,-0.44,0.19,0.00,-0.08,0.08,0.01,45.44,-69.87,2.87,0.13,0.81,0.13,2,5
1772818590.001733,1429397,-0.11,0.13,-0.09,-175.00,-84.12,11.00,-0.31,0.81,0.37,-0.15,0.10,0.05,45.56,-69.94,2.87,0.50,0.75,0.19,2,4
1772818590.042149,1429437,-0.04,0.09,-0.05,-175.00,-84.12,11.00,0.62,0.31,-1.12,-0.06,0.11,-0.09,45.63,-69.94,2.87,-1.12,1.00,0.13,2,4
1772818590.082791,1429478,-0.05,0.05,-0.04,-175.06,-84.12,11.06,0.44,-0.06,-0.13,-0.08,0.10,-0.01,45.69,-69.94,2.87,-0.19,-0.13,-0.50,2,3
1772818590.122591,1429518,-0.10,0.10,-0.05,-175.06,-84.12,11.06,0.25,-0.06,0.06,-0.07,0.08,0.04,45.69,-69.94,2.87,0.00,0.31,-0.13,2,3
1772818590.162230,1429558,-0.11,0.10,-0.06,-175.06,-84.12,11.06,-0.37,0.50,0.00,-0.08,0.11,0.02,45.69,-69.94,2.87,0.00,0.75,0.19,2,3
1772818590.202902,1429598,-0.10,0.11,-0.10,-175.06,-84.12,11.06,-0.50,0.81,-0.37,-0.09,0.11,0.05,45.75,-69.94,2.87,-0.13,0.88,-0.13,2,2
1772818590.242892,1429638,-0.08,0.09,-0.09,-175.06,-84.12,11.06,0.31,1.12,-0.81,-0.07,0.12,0.03,45.75,-69.94,2.87,-0.44,0.31,-0.13,1,2
1772818590.283181,1429678,-0.04,0.07,-0.08,-175.06,-84.12,11.06,0.75,1.25,-0.31,-0.06,0.09,0.00,45.75,-69.94,2.87,0.00,0.37,-0.31,1,1
1772818590.323065,1429718,-0.02,0.06,-0.12,-175.06,-84.06,11.06,0.37,0.62,0.50,-0.08,0.12,-0.02,45.75,-69.94,2.87,0.19,0.44,-0.13,1,1
1772818590.363157,1429759,-0.05,0.08,-0.11,-175.00,-84.06,11.06,-0.62,-0.37,0.62,-0.09,0.12,-0.02,45.75,-69.94,2.87,0.19,0.13,0.00,2,1
1772818590.403544,1429799,-0.07,0.12,-0.08,-175.00,-84.06,11.06,-0.75,-0.37,0.31,-0.10,0.12,0.00,45.75,-69.94,2.87,-0.44,0.19,0.06,1,1
1772818590.443670,1429839,-0.09,0.11,-0.07,-175.00,-84.06,11.00,0.06,-0.44,-0.25,-0.09,0.10,0.01,45.75,-69.94,2.87,-0.31,0.25,-0.25,1,1
1772818590.483981,1429879,-0.07,0.09,-0.08,-175.00,-84.06,11.00,0.44,-0.56,-0.19,-0.10,0.12,0.02,45.75,-69.94,2.87,-0.31,0.13,-0.44,3,1
1772818590.524073,1429919,-0.07,0.08,-0.09,-175.00,-84.06,11.06,0.56,-0.56,0.31,-0.06,0.07,-0.01,45.75,-69.94,2.87,0.00,0.00,-0.37,3,1
1772818590.564208,1429959,-0.09,0.08,-0.03,-175.00,-84.06,11.00,0.00,-0.56,0.81,-0.06,0.10,-0.02,45.75,-69.94,2.87,-0.06,0.13,-0.25,4,1
1772818590.604276,1429999,-0.09,0.10,-0.05,-175.00,-84.00,11.00,-0.69,-0.06,0.50,-0.08,0.09,-0.03,45.75,-70.00,2.87,-0.31,0.75,0.13,4,1
1772818590.644262,1430040,-0.09,0.13,-0.08,-175.00,-84.00,10.94,-1.06,0.00,0.31,-0.17,0.14,0.02,45.81,-70.00,2.87,0.19,-0.19,0.13,4,1
1772818590.684679,1430080,-0.06,0.11,-0.07,-175.00,-84.00,10.94,0.31,-0.13,-1.12,-0.09,0.12,-0.04,45.81,-70.00,2.87,-1.00,0.56,-0.31,5,1
1772818590.725193,1430120,-0.04,0.07,-0.03,-175.00,-84.06,11.00,1.00,-0.62,-0.06,-0.06,0.10,-0.06,45.88,-69.94,2.87,0.06,-0.37,-0.88,5,1
1772818590.765076,1430160,-0.06,0.07,-0.06,-175.00,-84.06,11.00,0.94,-0.50,0.69,-0.07,0.06,-0.01,45.94,-69.94,2.87,0.06,-0.06,-0.44,5,1
1772818590.804998,1430200,-0.08,0.07,-0.05,-175.00,-84.06,11.00,-1.25,0.31,0.81,-0.08,0.10,-0.04,45.94,-69.94,2.87,0.13,0.13,-0.06,6,1
1772818590.844484,1430240,-0.14,0.12,-0.05,-175.00,-84.00,10.94,-1.75,0.50,0.19,-0.08,0.11,0.01,45.94,-69.94,2.87,-0.19,0.31,-0.06,6,1
1772818590.885176,1430280,-0.10,0.17,-0.09,-175.00,-84.00,10.88,-0.13,0.88,-0.62,-0.10,0.15,0.00,45.94,-69.94,2.87,-0.44,0.00,-0.25,5,0
1772818590.925699,1430321,-0.04,0.09,-0.10,-175.00,-84.00,10.88,1.37,0.62,-0.44,-0.07,0.13,-0.02,45.94,-69.94,2.87,0.00,0.19,-0.44,6,0
1772818590.965506,1430361,0.00,0.05,-0.10,-175.00,-84.00,10.94,0.94,-0.25,0.06,-0.06,0.13,-0.07,45.94,-69.94,2.87,0.00,0.31,-0.25,7,1
1772818591.005948,1430401,-0.05,0.06,-0.06,-175.00,-84.00,10.94,-0.62,-0.88,0.19,-0.09,0.11,-0.03,45.94,-69.94,2.87,-0.06,0.06,-0.13,7,1
1772818591.045931,1430441,-0.09,0.12,-0.06,-175.00,-84.00,10.94,-1.00,-0.88,0.19,-0.09,0.10,0.02,45.94,-69.94,2.87,-0.19,0.06,0.13,7,1
1772818591.086098,1430481,-0.08,0.11,-0.06,-175.00,-84.00,10.94,-0.25,-0.50,0.00,-0.08,0.11,-0.01,45.94,-69.94,2.87,-0.19,0.13,-0.13,7,1
1772818591.126442,1430522,-0.08,0.11,-0.04,-175.00,-84.00,10.94,0.44,-0.13,-0.13,-0.08,0.11,0.00,45.94,-69.94,2.87,-0.13,-0.13,-0.25,8,2
1772818591.166409,1430562,-0.05,0.09,-0.05,-175.00,-84.00,10.94,0.37,0.00,0.19,-0.10,0.12,-0.04,45.94,-69.94,2.87,-0.37,-0.50,-0.44,8,2
1772818591.206500,1430602,-0.09,0.10,-0.04,-175.00,-84.00,10.94,-0.06,-0.31,0.19,-0.09,0.12,0.00,45.88,-69.94,2.87,0.19,-0.62,-0.31,8,2
1772818591.246722,1430642,-0.10,0.12,-0.05,-175.00,-84.00,10.94,-0.56,-0.06,0.31,-0.07,0.07,0.01,45.88,-69.94,2.87,-0.06,-0.44,0.19,9,2
1772818591.286713,1430682,-0.11,0.12,-0.07,-175.00,-84.00,10.88,-0.75,0.31,0.00,-0.07,0.14,0.03,45.94,-69.94,2.87,-0.31,-0.37,0.19,9,2
1772818591.327138,1430722,-0.03,0.18,-0.09,-175.00,-84.06,10.88,0.37,0.13,-1.44,-0.12,0.11,-0.03,45.88,-69.94,2.87,-0.75,0.00,0.06,8,2
1772818591.367162,1430762,-0.03,0.08,-0.09,-175.06,-84.06,11.00,1.44,-0.88,-0.25,-0.07,0.10,-0.05,45.88,-69.87,2.87,0.25,-1.25,-0.88,9,2
1772818591.407249,1430802,-0.07,0.08,-0.05,-175.06,-84.12,11.06,1.19,-0.88,0.06,-0.04,0.09,-0.01,45.88,-69.87,2.87,0.25,-0.69,-0.56,9,2
1772818591.447224,1430843,-0.10,0.05,-0.03,-175.06,-84.12,11.06,-0.62,-0.13,0.19,-0.08,0.08,0.03,45.81,-69.87,2.87,0.06,-0.25,0.00,9,2
1772818591.487518,1430883,-0.13,0.12,-0.05,-175.06,-84.12,11.00,-1.31,0.44,-0.31,-0.11,0.10,0.03,45.81,-69.87,2.87,0.19,-0.25,0.06,10,2
1772818591.528283,1430923,-0.07,0.15,-0.10,-175.06,-84.12,11.00,-0.13,0.50,-0.44,-0.07,0.16,0.01,45.81,-69.87,2.87,-0.31,-0.37,-0.13,9,2
1772818591.568069,1430963,-0.04,0.11,-0.13,-175.06,-84.12,11.00,1.12,-0.06,-0.62,-0.07,0.12,0.00,45.81,-69.87,2.87,0.25,-0.25,-0.37,9,2
1772818591.607908,1431003,0.00,0.08,-0.07,-175.06,-84.12,11.06,1.19,-0.88,-0.25,-0.05,0.14,-0.05,45.81,-69.87,2.87,0.19,-0.37,-0.25,10,2
1772818591.648242,1431043,-0.06,0.10,-0.05,-175.06,-84.12,11.13,0.06,-1.12,-0.37,-0.11,0.11,0.01,45.75,-69.81,2.87,0.06,-0.50,-0.31,10,2
1772818591.688400,1431084,-0.09,0.10,-0.05,-175.06,-84.19,11.13,-0.37,-1.31,-0.56,-0.08,0.10,0.03,45.75,-69.81,2.87,-0.19,-0.37,0.06,9,2
1772818591.728896,1431124,-0.12,0.11,-0.08,-175.06,-84.19,11.13,0.19,-1.06,-0.25,-0.08,0.11,0.03,45.75,-69.81,2.87,-0.13,-0.31,-0.06,9,2
1772818591.768733,1431164,-0.10,0.09,-0.08,-175.06,-84.19,11.13,0.69,-0.06,-0.44,-0.08,0.15,0.04,45.75,-69.81,2.87,-0.13,-0.25,-0.13,9,3
1772818591.808667,1431204,-0.08,0.09,-0.06,-175.06,-84.19,11.13,0.25,0.13,-0.44,-0.10,0.09,0.02,45.75,-69.81,2.87,0.00,-0.25,-0.31,9,3
1772818591.848975,1431244,-0.08,0.08,-0.05,-175.06,-84.19,11.13,-0.06,0.06,-0.13,-0.04,0.11,0.03,45.75,-69.81,2.87,-0.13,0.13,-0.13,8,3
1772818591.889081,1431284,-0.08,0.09,-0.07,-175.06,-84.19,11.13,-0.25,0.25,-0.13,-0.08,0.08,0.00,45.75,-69.81,2.87,0.25,0.13,0.13,8,2
1772818591.929310,1431325,-0.15,0.11,-0.09,-175.06,-84.19,11.13,-0.37,0.81,-0.06,-0.10,0.12,0.03,45.81,-69.87,2.87,0.06,0.56,-0.13,8,2
1772818591.969288,1431365,-0.07,0.14,-0.05,-175.06,-84.19,11.13,0.19,0.56,-0.56,-0.09,0.15,-0.07,45.88,-69.87,2.87,-0.62,1.00,0.13,8,2
1772818592.009648,1431405,-0.04,0.07,-0.06,-175.06,-84.25,11.19,0.62,0.00,-0.50,-0.05,0.13,-0.03,45.94,-69.87,2.87,0.00,-0.19,-0.62,8,2
1772818592.049590,1431445,-0.08,0.11,-0.04,-175.06,-84.25,11.19,0.44,-0.50,0.19,-0.05,0.11,0.03,45.94,-69.87,2.87,0.00,0.50,-0.13,7,2
1772818592.089706,1431485,-0.12,0.05,-0.07,-175.06,-84.25,11.19,-0.37,0.69,0.06,-0.08,0.12,0.02,46.00,-69.87,2.87,-0.13,0.88,0.25,7,2
1772818592.129982,1431525,-0.16,0.11,-0.07,-175.06,-84.19,11.13,-1.06,1.12,0.31,-0.10,0.12,0.01,46.00,-69.87,2.87,0.19,0.75,0.19,7,3
1772818592.169903,1431565,-0.15,0.16,-0.10,-175.06,-84.19,11.13,-0.37,1.25,0.13,-0.06,0.14,0.04,46.00,-69.87,2.87,0.25,0.50,0.06,7,2
1772818592.209962,1431605,-0.06,0.11,-0.12,-175.06,-84.12,11.13,0.81,1.62,-0.37,-0.05,0.13,-0.05,46.00,-69.87,2.87,-0.06,0.69,-0.31,7,1
1772818592.249992,1431645,0.03,0.07,-0.10,-175.06,-84.12,11.13,0.75,0.56,0.06,-0.07,0.15,-0.09,46.06,-69.87,2.87,-0.25,0.56,-0.19,7,2
1772818592.290587,1431686,-0.03,0.06,-0.09,-175.12,-84.12,11.13,-0.19,-0.81,-0.13,-0.07,0.15,-0.01,46.06,-69.87,2.87,-0.50,0.06,-0.19,6,2
1772818592.331094,1431726,-0.13,0.11,-0.06,-175.06,-84.12,11.13,-0.75,-1.19,0.06,-0.08,0.14,0.02,46.06,-69.87,2.87,-0.25,-0.06,-0.25,5,1
1772818592.370900,1431766,-0.11,0.11,-0.05,-175.06,-84.12,11.13,0.06,-0.25,0.37,-0.07,0.13,0.03,46.06,-69.87,2.87,-0.13,-0.06,-0.19,5,1
1772818592.410762,1431806,-0.08,0.09,-0.08,-175.06,-84.12,11.13,0.69,0.44,0.25,-0.08,0.15,0.00,46.06,-69.87,2.87,-0.25,0.25,-0.31,4,3
1772818592.450989,1431846,-0.03,0.07,-0.09,-175.06,-84.12,11.13,0.00,0.56,0.06,-0.06,0.13,-0.02,46.06,-69.87,2.87,-0.44,0.19,-0.19,4,3
1772818592.491316,1431887,-0.04,0.10,-0.12,-175.06,-84.12,11.13,-0.75,-0.06,0.19,-0.08,0.10,0.00,46.06,-69.87,2.87,-0.19,0.19,-0.25,3,3
1772818592.531442,1431927,-0.08,0.11,-0.08,-175.06,-84.12,11.13,-0.37,0.31,0.62,-0.13,0.08,0.01,46.06,-69.87,2.87,0.00,0.25,0.00,3,2
1772818592.571599,1431967,-0.06,0.10,-0.15,-175.06,-84.12,11.13,-0.50,0.25,0.50,-0.09,0.17,-0.01,46.13,-69.94,2.87,-0.88,0.94,-0.06,3,2
1772818592.611821,1432007,-0.09,0.14,-0.12,-175.06,-84.12,11.06,-0.56,-0.81,0.44,-0.12,0.16,-0.03,46.13,-69.94,2.87,-0.25,0.44,0.50,3,2
1772818592.651612,1432047,-0.02,0.09,-0.08,-175.06,-84.12,11.06,0.50,-1.37,-0.50,-0.08,0.13,-0.03,46.19,-69.94,2.87,-0.44,-0.06,-0.56,3,2
1772818592.692259,1432087,-0.11,0.10,-0.02,-175.06,-84.19,11.06,0.62,-1.37,0.75,-0.04,0.09,-0.01,46.25,-69.94,2.87,-0.06,-0.37,-0.50,3,2
1772818592.732196,1432128,-0.13,0.05,-0.07,-175.06,-84.19,11.06,0.44,-0.31,0.81,-0.09,0.14,0.03,46.25,-69.94,2.87,0.19,0.13,-0.19,3,3
1772818592.772270,1432168,-0.12,0.11,-0.08,-175.00,-84.12,11.06,-1.25,0.50,0.44,-0.10,0.10,0.02,46.25,-69.94,2.87,-0.19,-0.13,-0.13,3,3
1772818592.812394,1432208,-0.06,0.13,-0.08,-175.00,-84.12,11.00,-1.06,1.25,0.06,-0.08,0.16,-0.01,46.25,-69.94,2.87,-0.19,0.06,0.00,3,2
1772818592.852552,1432248,-0.01,0.10,-0.09,-175.00,-84.12,10.94,0.25,0.88,-0.25,-0.09,0.14,0.02,46.25,-69.94,2.87,-0.19,0.25,-0.50,3,1
1772818592.892748,1432288,-0.01,0.07,-0.10,-175.00,-84.12,11.00,1.06,-0.19,0.06,-0.09,0.14,-0.02,46.25,-69.94,2.87,-0.13,0.00,-0.56,2,1
1772818592.933097,1432328,-0.03,0.07,-0.08,-175.00,-84.12,11.00,0.37,-0.56,0.25,-0.09,0.14,-0.04,46.25,-69.94,2.87,0.00,-0.06,-0.44,2,1
1772818592.973180,1432368,-0.10,0.09,-0.08,-175.00,-84.12,11.00,-0.69,-0.88,0.31,-0.10,0.12,0.00,46.25,-69.94,2.87,-0.19,-0.19,-0.31,2,1
1772818593.013263,1432408,-0.13,0.12,-0.05,-175.00,-84.12,11.00,-0.44,-0.06,0.19,-0.10,0.10,0.01,46.25,-69.94,2.87,-0.31,0.06,-0.06,2,2
1772818593.053286,1432449,-0.13,0.12,-0.05,-175.00,-84.12,11.00,-0.25,0.37,0.06,-0.09,0.13,0.02,46.25,-69.94,2.87,-0.19,-0.13,-0.31,2,2
1772818593.093415,1432489,-0.07,0.09,-0.08,-175.00,-84.12,11.00,0.19,0.94,0.13,-0.06,0.12,-0.02,46.25,-69.94,2.87,-0.13,0.19,-0.50,2,1
1772818593.133744,1432529,-0.04,0.09,-0.10,-175.00,-84.12,11.00,0.13,0.44,0.37,-0.05,0.11,-0.02,46.25,-69.94,2.87,-0.19,0.13,-0.37,2,1
1772818593.173574,1432569,-0.05,0.12,-0.13,-175.00,-84.12,11.00,-0.37,0.37,0.31,-0.07,0.11,0.02,46.25,-69.94,2.87,0.00,0.06,0.00,2,1
1772818593.214007,1432609,-0.06,0.12,-0.10,-175.00,-84.12,11.00,-0.81,0.06,0.13,-0.07,0.15,-0.09,46.25,-69.94,2.87,-0.81,0.50,-0.06,2,2
1772818593.254111,1432649,-0.07,0.23,-0.11,-175.00,-84.12,10.94,-0.31,-0.69,0.19,-0.13,0.15,0.02,46.25,-69.94,2.87,0.13,-0.25,0.25,2,2
1772818593.294408,1432689,-0.07,0.09,-0.05,-175.00,-84.12,10.94,0.94,-0.69,-0.88,-0.07,0.15,-0.04,46.25,-69.87,2.87,-0.19,-0.75,-0.75,2,3
1772818593.334259,1432730,-0.06,0.11,-0.06,-175.00,-84.12,11.00,1.25,-0.69,0.19,-0.05,0.05,0.01,46.25,-69.87,2.87,0.06,-0.94,-0.50,2,2
1772818593.374524,1432770,-0.10,0.06,-0.07,-175.00,-84.12,11.00,0.13,0.25,-0.25,-0.08,0.11,0.04,46.19,-69.87,2.87,0.19,-0.56,0.06,2,3
1772818593.414563,1432810,-0.09,0.15,-0.08,-175.00,-84.12,11.00,-1.00,0.69,-0.56,-0.07,0.12,0.00,46.19,-69.81,2.87,0.06,-0.69,0.25,2,3
1772818593.454708,1432850,-0.08,0.16,-0.07,-175.00,-84.12,11.00,0.00,0.56,-0.94,-0.12,0.16,0.05,46.19,-69.81,2.87,-0.06,-0.81,0.13,2,3
1772818593.495147,1432890,-0.03,0.11,-0.15,-175.00,-84.12,11.00,1.37,0.37,-1.50,-0.11,0.15,0.02,46.13,-69.81,2.87,-0.31,-0.88,-0.25,2,3
1772818593.535435,1432930,0.00,0.06,-0.11,-175.06,-84.12,11.13,1.69,-0.69,-0.69,-0.09,0.14,-0.02,46.06,-69.81,2.87,0.19,-0.88,-0.50,2,3
1772818593.575372,1432970,-0.04,0.08,-0.12,-175.06,-84.12,11.19,0.62,-0.94,-0.56,-0.09,0.13,0.00,46.06,-69.81,2.87,0.19,-0.88,-0.13,2,3
1772818593.615425,1433011,-0.09,0.07,-0.07,-175.06,-84.12,11.19,-0.19,-1.19,-0.37,-0.10,0.14,0.01,46.06,-69.81,2.87,-0.06,-0.44,-0.25,2,4
1772818593.655882,1433051,-0.10,0.10,-0.06,-175.06,-84.12,11.19,-0.13,-0.69,-0.13,-0.10,0.15,0.04,46.06,-69.81,2.87,-0.13,-0.44,-0.06,2,4
1772818593.695772,1433091,-0.10,0.11,-0.07,-175.06,-84.19,11.19,0.13,-0.50,-0.06,-0.08,0.14,0.05,46.00,-69.75,2.87,-0.31,-0.75,-0.37,2,4
1772818593.735968,1433131,-0.08,0.08,-0.08,-175.06,-84.12,11.19,0.25,-0.19,-0.19,-0.09,0.12,0.00,46.00,-69.75,2.87,-0.25,-0.37,-0.44,4,5
1772818593.776112,1433171,-0.08,0.08,-0.10,-175.00,-84.12,11.13,0.25,-0.25,0.31,-0.09,0.13,0.00,46.00,-69.75,2.87,-0.13,-0.56,-0.44,4,6
1772818593.816191,1433211,-0.06,0.08,-0.09,-175.00,-84.12,11.13,-0.56,-0.37,0.25,-0.08,0.15,-0.01,46.00,-69.75,2.87,0.00,-0.50,-0.25,4,6
1772818593.856067,1433251,-0.07,0.10,-0.06,-175.00,-84.12,11.13,-0.31,-0.44,0.19,-0.07,0.11,0.06,46.00,-69.75,2.87,0.00,0.00,-0.13,4,6
1772818593.896525,1433292,-0.16,0.11,-0.09,-175.00,-84.12,11.13,-0.44,-0.31,0.62,-0.12,0.13,0.06,46.00,-69.75,2.87,0.19,-0.06,-0.13,4,6
1772818593.937006,1433332,-0.10,0.12,-0.07,-175.00,-84.12,11.13,0.69,-0.75,-0.88,-0.07,0.17,-0.07,46.00,-69.75,2.87,-0.81,-0.25,-0.31,4,6
1772818593.976735,1433372,-0.08,0.05,-0.07,-175.00,-84.12,11.13,0.37,-0.69,-0.06,-0.06,0.09,0.02,46.00,-69.75,2.87,0.13,-1.06,-0.69,4,6
1772818594.016696,1433412,-0.08,0.08,-0.03,-175.00,-84.12,11.13,0.25,-0.44,0.19,-0.05,0.10,0.01,46.00,-69.69,2.87,0.13,0.13,-0.06,4,6
1772818594.056648,1433452,-0.11,0.09,-0.06,-175.00,-84.12,11.13,-0.62,0.19,0.37,-0.08,0.12,0.00,46.00,-69.69,2.87,0.13,0.25,0.25,4,6
1772818594.097138,1433492,-0.11,0.12,-0.10,-175.00,-84.12,11.13,-0.69,0.62,-0.13,-0.12,0.16,0.07,46.00,-69.69,2.87,0.13,0.31,0.25,4,5
1772818594.137206,1433533,-0.07,0.13,-0.09,-175.00,-84.12,11.06,0.19,0.44,-1.00,-0.08,0.17,0.04,46.00,-69.69,2.87,-0.37,0.25,0.06,3,4
1772818594.177409,1433573,-0.03,0.07,-0.09,-175.00,-84.12,11.13,1.19,0.19,-0.94,-0.07,0.13,-0.03,46.00,-69.75,2.87,0.06,0.75,-0.19,2,3
1772818594.217586,1433613,0.00,0.02,-0.09,-175.06,-84.12,11.19,1.00,-0.44,-0.50,-0.07,0.15,-0.03,46.06,-69.75,2.87,0.00,0.81,0.00,1,3
1772818594.257815,1433653,-0.08,0.06,-0.04,-175.06,-84.12,11.19,-0.31,-0.94,-0.37,-0.11,0.12,0.00,46.06,-69.75,2.87,-0.13,0.69,0.37,1,3
1772818594.298186,1433693,-0.13,0.10,-0.04,-175.06,-84.12,11.19,-0.56,-0.75,-0.13,-0.10,0.15,0.06,46.13,-69.75,2.87,-0.19,0.56,0.13,1,2
1772818594.338049,1433734,-0.10,0.07,-0.03,-175.06,-84.19,11.19,-0.25,0.25,0.19,-0.09,0.16,0.03,46.19,-69.75,2.87,-0.25,0.69,0.00,1,2
1772818594.378102,1433773,-0.08,0.08,-0.05,-175.06,-84.12,11.19,0.31,0.62,0.13,-0.07,0.13,0.00,46.25,-69.81,2.87,-0.25,0.75,-0.19,3,2
1772818594.418172,1433814,-0.05,0.07,-0.06,-175.06,-84.12,11.19,0.06,0.31,0.44,-0.05,0.12,-0.01,46.25,-69.81,2.87,-0.19,0.44,-0.50,3,2
1772818594.458341,1433854,-0.07,0.08,-0.05,-175.00,-84.12,11.19,-0.19,0.19,0.81,-0.07,0.15,0.02,46.25,-69.81,2.87,-0.19,0.31,-0.19,2,2
1772818594.498422,1433894,-0.06,0.10,-0.07,-175.00,-84.12,11.19,-0.62,0.37,0.19,-0.14,0.09,0.05,46.25,-69.81,2.87,0.00,0.50,0.06,2,2
1772818594.538728,1433934,-0.10,0.12,-0.09,-175.00,-84.12,11.13,-0.88,0.62,0.50,-0.14,0.14,0.07,46.31,-69.81,2.87,0.25,0.37,0.13,2,2
1772818594.578775,1433974,-0.06,0.13,-0.07,-175.00,-84.12,11.13,0.25,0.19,-0.56,-0.08,0.17,-0.08,46.38,-69.81,2.87,-1.00,0.62,0.00,2,2
1772818594.618975,1434014,-0.05,0.08,-0.06,-175.00,-84.12,11.13,0.75,0.06,-0.25,-0.08,0.12,-0.03,46.38,-69.81,2.87,0.25,-0.19,-0.75,3,2
1772818594.659011,1434054,-0.08,0.08,-0.06,-175.00,-84.12,11.19,0.69,-0.25,0.25,-0.07,0.12,0.00,46.38,-69.81,2.87,0.13,0.13,-0.44,2,2
1772818594.699093,1434095,-0.08,0.09,-0.07,-175.00,-84.12,11.19,-0.13,0.44,0.19,-0.11,0.13,0.00,46.38,-69.81,2.87,0.13,0.56,0.13,2,2
1772818594.739478,1434135,-0.11,0.13,-0.14,-175.00,-84.12,11.13,-0.94,0.25,-0.19,-0.09,0.15,0.01,46.38,-69.81,2.87,0.06,0.50,0.25,3,2
1772818594.779511,1434175,-0.09,0.14,-0.12,-175.00,-84.12,11.13,0.19,0.56,-0.62,-0.09,0.17,0.00,46.38,-69.81,2.87,-0.13,0.31,0.06,1,2
1772818594.819883,1434215,-0.03,0.08,-0.09,-175.06,-84.19,11.19,1.25,0.37,-0.69,-0.07,0.16,-0.05,46.31,-69.87,2.87,-0.13,0.37,-0.50,1,1
1772818594.859984,1434255,-0.03,0.06,-0.09,-175.06,-84.19,11.25,0.94,-0.50,-0.19,-0.07,0.13,-0.06,46.31,-69.87,2.81,-0.06,0.25,-0.31,2,1
1772818594.900179,1434295,-0.05,0.08,-0.06,-175.06,-84.19,11.25,-0.13,-0.81,-0.06,-0.10,0.12,0.01,46.25,-69.87,2.81,0.06,0.06,-0.06,2,1
1772818594.940602,1434336,-0.08,0.10,-0.05,-175.06,-84.19,11.25,-0.62,-0.81,0.19,-0.09,0.14,-0.01,46.25,-69.87,2.81,-0.13,0.06,-0.06,2,1
1772818594.980346,1434376,-0.08,0.09,-0.07,-175.06,-84.19,11.25,-0.25,-0.62,0.00,-0.10,0.13,0.01,46.19,-69.94,2.81,-0.19,0.06,-0.13,2,1
1772818595.020648,1434416,-0.12,0.09,-0.09,-175.06,-84.19,11.25,0.31,0.00,0.00,-0.09,0.13,-0.01,46.13,-69.94,2.75,-0.25,0.00,-0.25,2,2
1772818595.060422,1434456,-0.08,0.09,-0.07,-175.06,-84.19,11.25,0.25,0.44,0.25,-0.07,0.11,0.00,46.13,-69.94,2.75,0.13,-0.06,-0.69,2,2
1772818595.100982,1434496,-0.07,0.07,-0.10,-175.06,-84.19,11.25,-0.13,0.81,0.69,-0.05,0.08,-0.01,46.13,-69.94,2.75,-0.13,0.06,-0.44,2,2
1772818595.141261,1434536,-0.05,0.08,-0.13,-175.00,-84.19,11.19,-0.69,0.44,0.56,-0.11,0.10,0.00,46.13,-69.94,2.75,-0.19,0.19,-0.13,2,2
1772818595.180978,1434576,-0.07,0.10,-0.15,-175.00,-84.12,11.13,-1.37,0.06,0.69,-0.09,0.14,0.00,46.06,-69.94,2.75,-0.75,0.37,-0.06,3,2
1772818595.221173,1434616,-0.10,0.20,-0.11,-175.00,-84.12,11.06,-0.44,-0.31,-0.19,-0.12,0.14,-0.01,46.06,-70.00,2.69,0.19,0.13,0.13,3,2
1772818595.261676,1434657,-0.05,0.08,-0.06,-175.00,-84.12,11.13,1.12,-0.19,-0.44,-0.07,0.12,-0.06,46.06,-70.00,2.69,-0.37,-0.31,-0.75,3,2
1772818595.301898,1434697,-0.04,0.08,-0.06,-175.00,-84.19,11.13,0.75,-0.62,0.44,-0.04,0.08,-0.02,46.13,-70.00,2.69,0.13,-0.25,-0.69,3,2
1772818595.341930,1434737,-0.09,0.04,-0.07,-175.00,-84.19,11.19,-0.69,0.00,0.56,-0.08,0.08,0.03,46.13,-70.00,2.69,-0.06,0.13,-0.25,4,2
1772818595.381888,1434777,-0.11,0.11,-0.08,-175.00,-84.12,11.13,-1.50,0.50,0.31,-0.09,0.09,0.03,46.06,-70.00,2.69,-0.25,-0.25,0.06,5,2
1772818595.421996,1434817,-0.06,0.16,-0.12,-175.00,-84.12,11.06,-0.94,0.75,0.25,-0.09,0.14,-0.01,46.06,-70.00,2.69,-0.31,-0.06,0.13,5,1
1772818595.462085,1434857,-0.03,0.11,-0.12,-175.00,-84.12,11.00,0.56,0.37,-0.37,-0.09,0.16,0.04,46.00,-70.00,2.69,-0.13,0.06,-0.31,6,1
1772818595.502466,1434898,0.01,0.07,-0.12,-175.00,-84.12,11.06,0.88,-0.37,-0.06,-0.09,0.11,-0.03,46.00,-70.00,2.69,-0.19,-0.19,-0.44,7,1
1772818595.542600,1434938,-0.04,0.06,-0.11,-175.00,-84.12,11.06,0.25,-1.25,0.25,-0.08,0.08,-0.01,46.00,-70.06,2.69,0.06,-0.37,-0.31,7,1
1772818595.582696,1434978,-0.07,0.09,-0.08,-175.00,-84.19,11.06,-0.69,-1.62,0.13,-0.08,0.08,0.01,45.94,-70.06,2.62,-0.37,-0.37,0.00,8,1
1772818595.622896,1435018,-0.13,0.12,-0.07,-175.00,-84.19,11.06,-0.56,-0.69,-0.31,-0.08,0.12,-0.01,45.94,-70.06,2.62,-0.31,-0.56,-0.06,8,1
1772818595.662899,1435058,-0.08,0.13,-0.04,-175.00,-84.19,11.06,0.25,0.13,-0.56,-0.07,0.09,0.01,45.88,-70.06,2.62,-0.13,-0.81,-0.19,8,1
1772818595.703202,1435098,-0.07,0.10,-0.08,-175.00,-84.19,11.06,0.62,-0.37,-0.25,-0.06,0.07,-0.04,45.81,-70.06,2.62,-0.06,-0.69,-0.50,9,1
1772818595.743270,1435139,-0.09,0.08,-0.10,-175.00,-84.19,11.06,0.50,-0.19,-0.19,-0.05,0.07,0.04,45.75,-70.00,2.62,0.00,-0.88,-0.44,9,1
1772818595.783363,1435179,-0.08,0.08,-0.10,-175.00,-84.19,11.06,0.06,-0.37,-0.06,-0.08,0.09,0.01,45.69,-70.00,2.62,0.00,-0.75,-0.13,9,1
1772818595.823430,1435219,-0.05,0.09,-0.09,-175.00,-84.19,11.06,-0.19,0.06,-0.56,-0.08,0.07,-0.02,45.69,-70.00,2.62,-0.13,-0.56,-0.06,9,1
1772818595.863504,1435259,-0.10,0.13,-0.10,-175.00,-84.19,11.06,-0.25,0.44,-0.37,-0.10,0.12,0.05,45.69,-70.00,2.56,0.13,-0.50,0.13,9,1
1772818595.903926,1435299,-0.05,0.11,-0.08,-175.00,-84.25,11.13,1.00,-0.06,-1.62,-0.08,0.10,-0.04,45.63,-70.00,2.56,-0.62,-0.31,-0.44,9,1
1772818595.944011,1435339,-0.04,0.07,-0.07,-175.06,-84.25,11.19,1.12,-0.19,-0.19,-0.05,0.09,-0.02,45.56,-69.94,2.62,0.75,-1.44,-0.62,9,1
1772818595.984090,1435379,-0.09,0.07,-0.07,-175.06,-84.25,11.25,0.81,-0.19,0.13,-0.06,0.07,0.03,45.56,-69.94,2.62,0.62,-0.37,0.13,9,1
1772818596.023914,1435419,-0.11,0.08,-0.11,-175.06,-84.25,11.25,-1.19,0.62,0.06,-0.10,0.10,0.02,45.56,-69.94,2.62,0.25,-0.25,0.25,9,1
1772818596.064340,1435460,-0.12,0.12,-0.10,-175.06,-84.25,11.19,-0.75,0.50,-0.56,-0.09,0.10,0.03,45.56,-69.94,2.62,-0.44,-0.37,-0.19,10,1
1772818596.104514,1435500,-0.06,0.13,-0.08,-175.12,-84.31,11.25,0.25,1.00,-1.19,-0.07,0.13,0.03,45.56,-69.94,2.56,-0.94,-0.50,-0.31,8,1
1772818596.144993,1435540,-0.04,0.04,-0.13,-175.12,-84.31,11.31,1.50,0.44,-0.50,-0.06,0.09,0.00,45.56,-69.94,2.62,-0.13,-0.25,-0.50,9,1
1772818596.184711,1435580,-0.03,0.03,-0.13,-175.12,-84.31,11.38,0.88,-0.25,0.00,-0.06,0.11,-0.04,45.56,-69.94,2.62,0.19,-0.37,-0.37,9,1
1772818596.225108,1435620,-0.09,0.08,-0.10,-175.12,-84.31,11.38,-0.25,-0.75,0.37,-0.08,0.10,0.01,45.56,-69.94,2.62,0.13,-0.31,-0.06,8,1
1772818596.265175,1435660,-0.11,0.10,-0.05,-175.12,-84.31,11.38,-0.75,-0.37,0.31,-0.05,0.10,0.05,45.56,-69.94,2.62,-0.31,-0.19,-0.06,8,1
1772818596.305355,1435701,-0.11,0.12,-0.09,-175.12,-84.31,11.31,-0.75,0.25,0.25,-0.06,0.10,0.05,45.56,-69.94,2.62,-0.44,-0.13,-0.31,7,1
1772818596.345268,1435741,-0.07,0.10,-0.09,-175.12,-84.31,11.31,0.00,0.50,0.19,-0.07,0.11,0.01,45.56,-69.94,2.62,-0.25,0.44,-0.25,7,3
1772818596.385469,1435781,-0.05,0.09,-0.13,-175.12,-84.31,11.31,-0.13,0.37,0.37,-0.06,0.05,-0.02,45.56,-69.94,2.62,0.00,0.37,-0.44,7,3
1772818596.425908,1435821,-0.07,0.11,-0.08,-175.12,-84.31,11.31,-0.44,-0.19,0.56,-0.06,0.08,0.00,45.56,-69.94,2.62,-0.06,0.37,-0.31,7,3
1772818596.465651,1435861,-0.12,0.13,-0.10,-175.12,-84.31,11.25,-0.94,0.13,0.19,-0.11,0.04,0.07,45.56,-69.94,2.62,0.19,0.37,0.19,6,3
1772818596.505815,1435901,-0.10,0.13,-0.13,-175.12,-84.31,11.25,-0.94,0.56,0.19,-0.09,0.11,0.05,45.69,-70.00,2.62,0.00,1.00,0.19,6,3
1772818596.546323,1435942,-0.07,0.17,-0.12,-175.12,-84.31,11.19,0.06,0.06,-0.69,-0.09,0.10,-0.07,45.75,-70.00,2.62,-0.81,1.12,0.37,6,3
1772818596.586310,1435982,-0.02,0.08,-0.09,-175.12,-84.31,11.25,0.81,-0.50,-0.25,-0.06,0.08,0.00,45.75,-70.00,2.62,0.13,0.00,-0.62,6,3
1772818596.626251,1436022,-0.07,0.08,-0.07,-175.12,-84.31,11.25,0.69,-0.50,0.44,-0.03,0.07,0.00,45.81,-70.00,2.62,0.13,0.56,-0.25,5,3
1772818596.666170,1436062,-0.12,0.08,-0.08,-175.12,-84.31,11.25,-0.25,0.13,0.37,-0.10,0.11,0.01,45.81,-70.00,2.62,0.00,0.94,0.19,5,3
1772818596.706737,1436102,-0.13,0.12,-0.09,-175.12,-84.25,11.25,-1.06,0.75,-0.06,-0.09,0.11,0.01,45.88,-70.00,2.62,-0.06,0.62,0.06,6,3
1772818596.746985,1436142,-0.06,0.15,-0.11,-175.12,-84.25,11.19,-0.56,0.62,-0.13,-0.06,0.12,0.02,45.88,-70.00,2.62,-0.13,0.31,0.13,5,1
1772818596.787048,1436182,-0.05,0.09,-0.13,-175.12,-84.19,11.19,0.88,0.88,-0.62,-0.08,0.09,0.04,45.88,-70.00,2.62,-0.13,0.31,-0.37,5,1
1772818596.827036,1436222,-0.03,0.06,-0.14,-175.12,-84.19,11.19,0.94,0.06,0.13,-0.07,0.11,-0.06,45.94,-70.00,2.62,-0.19,0.31,-0.44,5,2
1772818596.867274,1436263,-0.06,0.05,-0.10,-175.06,-84.19,11.25,0.06,-0.37,0.31,-0.08,0.08,-0.03,45.94,-70.00,2.62,-0.06,0.37,-0.25,5,2
1772818596.907444,1436303,-0.08,0.09,-0.09,-175.06,-84.19,11.25,-0.69,-0.62,0.37,-0.08,0.09,0.03,45.94,-70.00,2.62,-0.25,0.00,-0.19,5,2
1772818596.947740,1436343,-0.09,0.10,-0.08,-175.06,-84.19,11.19,-0.75,-0.56,0.25,-0.08,0.11,0.03,45.94,-70.00,2.62,-0.31,0.06,-0.06,5,2
1772818596.987993,1436383,-0.09,0.11,-0.09,-175.06,-84.19,11.19,-0.25,-0.13,0.37,-0.09,0.09,0.00,45.94,-70.00,2.62,-0.25,0.06,-0.31,4,3
1772818597.028119,1436423,-0.07,0.08,-0.06,-175.06,-84.19,11.19,0.13,0.06,0.44,-0.05,0.09,-0.01,45.94,-70.00,2.62,-0.13,-0.13,-0.50,4,3
1772818597.068088,1436463,-0.08,0.08,-0.07,-175.06,-84.12,11.13,-0.25,-0.06,0.81,-0.04,0.08,0.00,45.94,-70.00,2.62,-0.19,0.06,-0.69,4,3
1772818597.108100,1436504,-0.10,0.11,-0.06,-175.00,-84.12,11.13,-0.75,0.06,0.94,-0.08,0.06,0.01,46.00,-70.00,2.62,0.06,0.13,-0.06,3,3
1772818597.148630,1436544,-0.08,0.10,-0.11,-174.94,-84.06,11.06,-1.06,0.50,0.25,-0.08,0.14,-0.02,46.00,-70.00,2.62,-1.12,0.44,-0.19,4,3
1772818597.188232,1436584,-0.09,0.20,-0.11,-174.94,-84.06,11.00,-0.94,0.13,0.25,-0.09,0.11,0.00,46.00,-70.00,2.62,0.13,0.19,0.31,4,3
1772818597.228899,1436624,-0.05,0.08,-0.06,-174.94,-84.06,10.94,0.94,-0.50,-0.88,-0.07,0.10,-0.06,46.06,-70.00,2.62,-0.13,-0.37,-0.62,3,3
1772818597.269105,1436664,-0.03,0.07,-0.05,-174.94,-84.06,11.00,1.12,-0.56,0.56,-0.05,0.06,-0.01,46.06,-70.00,2.62,0.31,-0.25,-0.56,3,3
1772818597.308773,1436704,-0.10,0.03,-0.07,-174.94,-84.06,11.06,0.31,-0.06,0.44,-0.08,0.09,0.04,46.06,-70.00,2.62,0.06,0.13,-0.13,2,3
1772818597.349383,1436745,-0.07,0.09,-0.09,-174.94,-84.06,11.00,-1.94,0.31,0.44,-0.12,0.08,0.05,46.06,-70.00,2.62,-0.31,-0.19,0.19,2,2
1772818597.389403,1436785,-0.05,0.14,-0.11,-174.94,-84.00,10.94,-1.00,0.50,-0.13,-0.11,0.15,0.02,46.06,-70.00,2.62,-0.13,-0.25,0.25,2,1
1772818597.429317,1436825,-0.05,0.13,-0.13,-174.94,-84.00,10.88,1.00,0.37,-0.62,-0.09,0.12,0.02,46.06,-70.00,2.62,0.06,0.06,-0.31,1,1
1772818597.469465,1436865,-0.01,0.06,-0.10,-174.87,-84.00,10.94,1.69,-0.31,-0.06,-0.07,0.10,-0.05,46.06,-70.00,2.62,-0.06,-0.19,-0.50,1,1
1772818597.510027,1436905,-0.05,0.03,-0.08,-174.87,-84.00,11.00,0.25,-1.06,0.00,-0.09,0.11,-0.01,46.06,-70.00,2.62,-0.06,-0.37,-0.19,1,2
1772818597.550168,1436945,-0.08,0.06,-0.08,-174.87,-84.00,11.00,-1.00,-1.31,-0.06,-0.08,0.10,0.03,46.06,-70.00,2.62,-0.19,-0.62,0.00,0,2
1772818597.590162,1436985,-0.11,0.10,-0.06,-174.87,-84.00,10.94,-0.56,-1.00,-0.19,-0.07,0.12,-0.01,46.06,-70.00,2.62,-0.25,-0.69,0.00,1,2
1772818597.630485,1437026,-0.11,0.09,-0.06,-174.87,-84.06,10.94,0.31,-0.50,-0.13,-0.07,0.12,0.00,46.00,-69.94,2.62,-0.37,-0.69,-0.06,1,2
1772818597.670517,1437066,-0.07,0.07,-0.05,-174.87,-84.06,10.94,0.62,-0.19,-0.31,-0.10,0.12,-0.01,45.94,-69.94,2.62,0.06,-0.94,-0.31,2,2
1772818597.710453,1437106,-0.07,0.06,-0.07,-174.87,-84.06,11.00,0.56,0.25,-0.13,-0.08,0.08,0.01,45.94,-69.94,2.62,0.19,-0.75,-0.37,2,3
1772818597.751082,1437146,-0.07,0.07,-0.08,-174.87,-84.06,11.00,-0.06,-0.06,0.13,-0.07,0.10,0.02,45.88,-69.94,2.62,-0.13,-0.62,-0.25,2,3
1772818597.790709,1437186,-0.09,0.07,-0.10,-174.87,-84.06,11.00,-0.25,0.13,-0.13,-0.08,0.08,0.00,45.88,-69.94,2.62,0.00,-0.62,0.00,2,3
1772818597.830894,1437226,-0.11,0.10,-0.12,-174.87,-84.06,11.00,-0.19,0.37,0.13,-0.13,0.14,0.02,45.88,-69.87,2.62,0.25,-0.19,0.06,2,4
1772818597.871175,1437266,-0.07,0.10,-0.10,-174.94,-84.06,11.00,0.50,-0.31,-1.44,-0.06,0.14,-0.03,45.81,-69.87,2.62,-0.62,-0.50,-0.13,3,4
1772818597.910919,1437306,-0.05,0.07,-0.05,-174.94,-84.06,11.06,0.88,-0.62,0.06,-0.05,0.09,0.01,45.81,-69.87,2.62,0.19,-1.44,-0.75,3,5
1772818597.951541,1437347,-0.08,0.05,-0.05,-174.94,-84.12,11.06,0.44,-0.19,0.00,-0.06,0.10,0.04,45.75,-69.81,2.62,0.31,-0.50,-0.25,3,5
1772818597.991368,1437387,-0.11,0.07,-0.10,-174.94,-84.12,11.06,-0.88,0.31,0.19,-0.06,0.12,0.00,45.75,-69.81,2.62,0.37,-0.13,0.13,3,5
1772818598.031529,1437427,-0.12,0.09,-0.13,-174.94,-84.06,11.06,-0.69,0.75,-0.13,-0.08,0.11,0.03,45.75,-69.81,2.62,0.25,0.00,0.13,3,6
1772818598.071917,1437467,-0.05,0.11,-0.13,-174.94,-84.06,11.06,0.25,0.37,-0.69,-0.07,0.13,0.01,45.75,-69.81,2.62,-0.37,-0.31,-0.13,2,6
1772818598.111926,1437507,-0.02,0.06,-0.13,-175.00,-84.12,11.06,0.75,-0.06,-0.25,-0.06,0.11,0.00,45.75,-69.81,2.62,0.06,-0.37,-0.50,2,5
1772818598.152413,1437548,-0.01,0.05,-0.10,-175.00,-84.12,11.13,0.56,-0.69,-0.13,-0.06,0.12,0.00,45.75,-69.81,2.62,0.00,-0.44,-0.25,2,5
1772818598.192202,1437588,-0.09,0.07,-0.07,-175.00,-84.12,11.13,-0.37,-1.50,0.00,-0.05,0.11,0.01,45.75,-69.81,2.62,0.06,0.06,0.00,2,5
1772818598.232270,1437628,-0.15,0.08,-0.06,-175.00,-84.12,11.13,-0.44,-1.06,-0.31,-0.08,0.10,0.04,45.75,-69.81,2.62,-0.37,0.19,-0.06,2,5
1772818598.272355,1437668,-0.12,0.09,-0.04,-175.00,-84.19,11.13,0.31,-0.06,-0.25,-0.08,0.12,0.07,45.75,-69.81,2.62,-0.13,0.37,0.00,2,4
1772818598.312720,1437708,-0.06,0.07,-0.06,-175.00,-84.19,11.13,0.44,0.37,-0.31,-0.06,0.12,0.01,45.75,-69.81,2.62,-0.13,0.37,-0.13,2,5
1772818598.353092,1437749,-0.04,0.06,-0.12,-175.00,-84.19,11.13,0.13,0.13,-0.13,-0.06,0.11,-0.01,45.81,-69.81,2.62,-0.13,0.88,0.06,3,4
1772818598.393101,1437788,-0.09,0.07,-0.11,-175.00,-84.19,11.13,-0.44,-0.56,0.19,-0.06,0.10,-0.01,45.88,-69.87,2.62,0.06,0.88,-0.06,2,4
1772818598.433127,1437829,-0.12,0.11,-0.07,-175.00,-84.19,11.13,-0.50,-0.13,0.00,-0.10,0.09,0.03,45.94,-69.87,2.69,0.06,0.50,0.37,2,4
1772818598.473073,1437869,-0.14,0.10,-0.10,-175.00,-84.19,11.13,-0.37,0.19,-0.13,-0.10,0.18,0.06,46.00,-69.87,2.69,0.19,0.94,0.19,2,4
1772818598.513283,1437909,-0.07,0.14,-0.08,-175.00,-84.19,11.13,0.44,0.06,-1.00,-0.06,0.14,-0.04,46.06,-69.94,2.69,-0.88,1.12,0.19,2,4
1772818598.553842,1437949,-0.04,0.04,-0.07,-175.00,-84.19,11.19,1.12,-0.19,-1.00,-0.06,0.13,-0.03,46.13,-69.94,2.69,0.00,0.00,-0.50,2,4
1772818598.593941,1437989,-0.07,0.06,-0.08,-175.06,-84.25,11.25,0.69,-0.25,-0.19,-0.03,0.12,0.00,46.19,-69.94,2.69,-0.06,0.62,-0.06,2,4
1772818598.633720,1438029,-0.07,0.02,-0.06,-175.06,-84.25,11.25,0.19,0.81,-0.13,-0.11,0.12,-0.01,46.25,-69.94,2.69,0.06,1.50,0.13,2,4
1772818598.674033,1438069,-0.08,0.06,-0.09,-175.06,-84.19,11.25,-0.62,0.88,-0.19,-0.11,0.13,0.08,46.31,-70.00,2.69,0.25,1.69,-0.44,2,4
1772818598.713725,1438109,-0.05,0.06,-0.12,-175.06,-84.19,11.25,-0.19,0.44,0.06,-0.07,0.15,0.00,46.50,-70.06,2.69,0.06,1.31,-0.19,2,3
1772818598.754220,1438150,-0.08,0.01,-0.11,-175.06,-84.19,11.25,1.00,0.25,0.62,-0.11,0.11,0.00,46.56,-70.06,2.75,0.00,0.44,-0.69,1,2
1772818598.794434,1438190,-0.02,0.02,-0.12,-175.00,-84.12,11.25,0.19,-0.13,2.06,-0.07,0.13,0.01,46.63,-70.00,2.75,-0.13,-0.19,-0.69,1,2
1772818598.834241,1438230,-0.06,0.06,-0.11,-174.94,-84.12,11.13,-1.37,-0.19,1.50,-0.08,0.13,0.00,46.63,-70.00,2.75,0.00,0.25,-0.19,1,2
1772818598.874360,1438270,-0.08,0.09,-0.11,-174.87,-84.06,11.00,-1.94,-0.69,1.19,-0.08,0.16,0.04,46.63,-70.00,2.75,-0.75,0.75,0.31,1,2
1772818598.914746,1438310,-0.09,0.11,-0.10,-174.81,-84.00,10.88,-1.12,-0.50,0.69,-0.10,0.11,0.02,46.69,-70.06,2.75,-0.56,0.31,0.00,1,2
1772818598.955163,1438351,-0.05,0.08,-0.11,-174.81,-84.00,10.88,0.00,-0.94,0.62,-0.08,0.10,0.00,46.69,-70.06,2.75,-1.06,0.19,-0.13,1,2
1772818598.995364,1438391,-0.08,0.08,-0.08,-174.81,-84.00,10.88,-0.37,-1.31,0.81,-0.08,0.11,-0.04,46.75,-70.06,2.69,-0.81,-0.19,0.06,1,2
1772818599.035270,1438430,-0.08,0.08,-0.04,-174.75,-84.06,10.81,-0.88,-1.31,0.50,-0.10,0.09,-0.04,46.75,-70.06,2.69,-0.50,-0.19,0.56,2,3
1772818599.075072,1438470,-0.11,0.13,-0.05,-174.75,-84.06,10.81,-1.31,-0.81,0.31,-0.10,0.08,-0.01,46.75,-70.06,2.69,-0.06,0.31,1.00,1,3
1772818599.115321,1438511,-0.07,0.14,-0.08,-174.75,-84.06,10.75,-1.12,0.19,-0.56,-0.05,0.17,0.00,46.63,-70.06,2.62,-0.75,0.75,0.94,1,3
1772818599.155737,1438551,-0.11,0.18,-0.12,-174.75,-84.06,10.69,-0.44,0.31,-1.12,-0.16,0.13,0.06,46.63,-70.12,2.56,0.25,0.13,1.25,2,3
1772818599.195984,1438591,-0.04,0.03,-0.10,-174.87,-84.12,10.81,1.12,0.75,-2.56,-0.06,0.13,-0.06,46.63,-70.19,2.50,-0.81,-0.13,0.19,2,2
1772818599.235940,1438631,-0.03,0.03,-0.12,-174.94,-84.19,10.94,1.00,0.13,-0.75,-0.04,0.10,0.00,46.63,-70.12,2.50,-0.19,-0.50,0.06,3,2
1772818599.275837,1438671,-0.09,0.04,-0.12,-174.94,-84.19,10.94,0.00,0.69,-0.25,-0.09,0.11,0.00,46.56,-70.12,2.50,0.62,0.25,0.19,2,2
1772818599.316175,1438712,-0.05,0.09,-0.12,-174.94,-84.19,10.94,-1.00,0.19,0.06,-0.09,0.17,0.04,46.56,-70.12,2.50,-0.06,0.13,0.25,3,2
1772818599.356624,1438752,-0.10,0.16,-0.11,-174.94,-84.19,10.88,-0.75,0.13,-0.13,-0.11,0.17,0.07,46.50,-70.19,2.50,1.19,-0.19,-0.25,3,1
1772818599.396546,1438792,-0.05,0.10,-0.15,-174.94,-84.19,10.88,1.81,0.75,-1.06,-0.10,0.14,0.05,46.44,-70.19,2.50,0.75,0.44,-0.31,3,1
1772818599.436638,1438832,-0.03,0.04,-0.11,-175.00,-84.19,11.06,3.12,0.31,-0.75,-0.07,0.18,-0.04,46.38,-70.19,2.50,0.13,0.19,-0.37,4,1
1772818599.476552,1438872,-0.01,0.00,-0.09,-175.00,-84.19,11.19,1.69,-0.50,-0.94,-0.08,0.12,-0.01,46.31,-70.19,2.50,0.44,-0.19,-0.37,4,0
1772818599.517096,1438912,-0.08,0.05,-0.08,-175.06,-84.25,11.25,0.25,-0.69,-0.88,-0.09,0.12,-0.01,46.31,-70.25,2.50,-0.06,0.25,-0.19,5,0
1772818599.557570,1438953,-0.09,0.06,-0.07,-175.06,-84.31,11.25,0.25,-0.69,-0.06,-0.09,0.12,0.00,46.31,-70.25,2.44,-0.37,0.13,-0.13,5,0
1772818599.597449,1438993,-0.09,0.06,-0.10,-175.06,-84.31,11.25,0.13,-0.37,0.37,-0.12,0.10,-0.03,46.25,-70.25,2.44,-0.37,-0.31,-0.44,5,1
1772818599.637734,1439033,-0.05,0.10,-0.10,-175.06,-84.31,11.25,-0.37,-0.44,0.25,-0.10,0.12,-0.01,46.25,-70.25,2.44,-0.37,-0.88,-0.62,7,1
1772818599.677929,1439073,-0.05,0.11,-0.07,-175.06,-84.31,11.25,-0.19,-0.31,0.13,-0.04,0.08,-0.01,46.19,-70.25,2.44,-0.37,-0.94,-0.50,7,1
1772818599.718147,1439113,-0.11,0.09,-0.07,-175.06,-84.31,11.25,0.19,-0.44,0.25,-0.08,0.10,0.03,46.06,-70.25,2.44,-0.19,-1.19,-0.31,7,1
1772818599.758302,1439154,-0.11,0.10,-0.10,-175.06,-84.31,11.25,-0.31,0.31,-0.25,-0.07,0.06,0.00,46.00,-70.19,2.37,-0.19,-1.00,0.06,8,1
1772818599.798198,1439194,-0.09,0.11,-0.13,-175.06,-84.31,11.25,-0.69,0.25,-0.50,-0.11,0.09,0.02,45.94,-70.19,2.37,-0.19,-0.37,0.25,8,1
1772818599.838219,1439233,0.00,0.13,-0.11,-175.06,-84.31,11.25,0.50,-0.44,-1.44,-0.11,0.13,-0.06,45.88,-70.25,2.37,-0.81,-0.44,0.25,8,1
1772818599.878209,1439273,0.00,0.04,-0.10,-175.12,-84.37,11.38,0.94,-1.94,-0.19,-0.05,0.12,-0.06,45.88,-70.25,2.31,-0.31,-1.62,-0.44,7,1
1772818599.918398,1439314,-0.08,0.07,-0.06,-175.12,-84.44,11.38,0.37,-2.25,0.25,-0.04,0.09,0.06,45.75,-70.19,2.31,0.19,-1.19,-0.62,7,1
1772818599.958662,1439354,-0.14,0.10,-0.07,-175.12,-84.44,11.38,0.06,-1.25,0.13,-0.09,0.09,0.01,45.63,-70.19,2.31,0.25,-0.62,-0.44,7,2
1772818599.998861,1439394,-0.17,0.12,-0.07,-175.12,-84.44,11.38,0.31,-0.62,0.06,-0.07,0.13,0.01,45.56,-70.19,2.31,0.62,-0.50,-0.62,8,2
1772818600.039110,1439434,-0.09,0.12,-0.06,-175.12,-84.44,11.44,1.31,0.37,-0.75,-0.08,0.14,0.01,45.50,-70.12,2.31,0.25,-1.19,-0.62,7,2
1772818600.079041,1439474,-0.08,0.06,-0.08,-175.19,-84.50,11.56,1.87,0.56,-1.31,-0.09,0.07,-0.03,45.44,-70.12,2.31,0.44,-1.00,-0.62,7,2
1772818600.119302,1439515,-0.02,0.01,-0.09,-175.25,-84.56,11.69,0.75,0.56,-0.88,-0.03,0.11,-0.02,45.38,-70.06,2.31,-0.44,-0.94,0.19,8,2
1772818600.159432,1439555,-0.07,0.08,-0.09,-175.25,-84.56,11.69,-1.06,-0.06,-1.00,-0.07,0.11,0.00,45.25,-70.06,2.31,0.06,-0.88,0.19,8,2
1772818600.199625,1439595,-0.09,0.14,-0.10,-175.31,-84.62,11.69,-0.94,0.19,-0.94,-0.09,0.09,0.05,45.19,-70.06,2.31,0.25,-0.44,0.00,8,2
1772818600.239691,1439635,-0.12,0.14,-0.09,-175.31,-84.62,11.75,1.06,0.62,-0.75,-0.06,0.12,0.08,45.13,-70.06,2.31,0.69,-0.56,-0.44,8,2
1772818600.279674,1439675,-0.10,0.09,-0.12,-175.37,-84.62,11.81,2.25,1.50,-0.94,-0.08,0.09,0.00,45.00,-70.06,2.31,0.50,-0.69,-0.56,8,3
1772818600.319916,1439715,-0.05,0.00,-0.15,-175.37,-84.62,11.94,1.31,1.37,-0.94,-0.07,0.08,0.01,45.00,-70.06,2.31,0.06,-0.25,-0.31,9,4
1772818600.360221,1439756,-0.05,0.01,-0.15,-175.44,-84.69,12.00,-0.37,1.31,-0.69,-0.05,0.08,0.02,45.00,-70.06,2.25,-0.69,0.56,-0.19,9,4
1772818600.400079,1439796,-0.04,0.07,-0.16,-175.44,-84.62,12.00,-0.69,0.81,-0.06,-0.08,0.01,0.08,44.94,-70.06,2.25,-0.50,0.50,0.00,8,3
1772818600.440346,1439836,-0.11,0.08,-0.16,-175.44,-84.62,11.94,-0.81,0.75,0.56,-0.06,0.15,-0.03,45.06,-70.12,2.25,-1.75,2.50,0.94,7,3
1772818600.480180,1439876,-0.05,0.14,-0.13,-175.44,-84.62,11.88,-0.56,-0.06,0.13,-0.07,0.11,-0.09,45.19,-70.19,2.19,-0.50,2.00,1.25,7,3
1772818600.520505,1439916,-0.03,0.07,-0.06,-175.44,-84.62,11.88,0.19,-1.25,0.19,-0.05,0.10,-0.02,45.25,-70.25,2.19,-0.31,0.19,0.13,7,3
1772818600.560953,1439956,-0.08,0.14,-0.08,-175.37,-84.62,11.88,-0.13,-0.62,0.94,-0.05,0.06,0.01,45.25,-70.25,2.19,-0.25,0.13,0.00,6,3
1772818600.600715,1439996,-0.10,0.07,-0.11,-175.37,-84.62,11.88,0.00,-0.56,0.00,-0.08,0.06,0.05,45.25,-70.25,2.12,-0.37,0.75,0.25,5,3
1772818600.640903,1440036,-0.14,0.11,-0.08,-175.37,-84.62,11.81,-1.06,1.62,0.19,-0.10,0.09,-0.01,45.31,-70.25,2.19,-0.75,0.94,0.25,5,3
1772818600.680825,1440077,-0.07,0.15,-0.13,-175.37,-84.56,11.81,0.25,0.94,0.25,-0.08,0.10,0.00,45.44,-70.31,2.19,-0.19,0.31,0.06,5,2
1772818600.721253,1440117,-0.06,0.08,-0.12,-175.37,-84.56,11.81,1.00,0.19,-0.19,-0.03,0.10,0.01,45.44,-70.31,2.19,-0.31,0.81,0.00,4,3
1772818600.761470,1440157,0.08,0.10,-0.14,-175.37,-84.56,11.88,0.06,0.56,0.31,-0.07,0.13,-0.06,45.50,-70.31,2.19,0.44,0.62,-0.13,5,3
1772818600.801346,1440197,-0.05,0.13,-0.15,-175.37,-84.56,11.88,0.75,-2.31,0.50,-0.08,0.11,-0.03,45.50,-70.31,2.19,0.50,0.44,0.06,5,3
1772818600.841665,1440237,-0.12,0.15,-0.08,-175.37,-84.62,11.88,-0.06,-1.12,0.00,-0.09,0.15,0.01,45.50,-70.31,2.19,-0.06,0.13,-0.13,5,3
1772818600.881707,1440277,-0.09,0.12,-0.08,-175.37,-84.62,11.88,0.88,-1.50,-0.62,-0.07,0.12,0.01,45.50,-70.31,2.19,-0.31,0.37,-0.06,6,3
1772818600.922013,1440317,-0.11,0.06,-0.10,-175.44,-84.69,11.94,1.00,-0.81,-0.94,-0.06,0.12,0.00,45.50,-70.31,2.19,-0.37,0.25,-0.37,6,4
1772818600.962520,1440358,-0.12,0.04,-0.10,-175.44,-84.75,12.00,0.75,-0.19,-0.62,-0.06,0.08,-0.02,45.50,-70.31,2.19,-0.13,0.25,-0.56,6,4
1772818601.002329,1440398,-0.04,0.05,-0.06,-175.44,-84.75,12.06,0.31,-0.50,0.44,-0.04,0.11,-0.02,45.50,-70.31,2.19,0.19,0.25,-0.44,7,4
1772818601.042257,1440438,-0.08,0.08,-0.09,-175.44,-84.75,12.00,-0.88,0.00,0.75,-0.10,0.04,-0.02,45.50,-70.31,2.19,0.44,0.00,0.06,8,4
1772818601.082482,1440478,-0.14,0.13,-0.10,-175.44,-84.75,11.94,-1.37,-0.44,0.75,-0.08,0.14,-0.04,45.50,-70.31,2.19,-0.62,0.56,0.00,8,3
1772818601.122822,1440518,-0.14,0.18,-0.08,-175.37,-84.69,11.88,-1.56,-0.19,-0.13,-0.13,0.08,0.02,45.50,-70.31,2.19,-0.81,0.44,0.06,8,3
1772818601.163306,1440559,-0.06,0.07,-0.06,-175.44,-84.69,11.88,0.00,-0.25,-0.56,-0.02,0.12,-0.11,45.56,-70.31,2.12,-0.37,-0.44,-0.69,8,3
1772818601.203123,1440599,-0.07,0.08,-0.09,-175.37,-84.69,11.88,0.13,-0.75,1.00,-0.04,0.09,-0.01,45.63,-70.31,2.19,0.25,-0.44,-0.88,7,3
1772818601.243216,1440639,-0.11,0.07,-0.09,-175.37,-84.69,11.81,-0.31,0.13,0.94,-0.09,0.09,0.00,45.69,-70.25,2.19,0.13,-0.06,-0.37,6,3
1772818601.283472,1440679,-0.12,0.11,-0.08,-175.31,-84.62,11.75,-1.37,0.50,1.00,-0.10,0.10,0.06,45.69,-70.25,2.19,-0.06,-0.13,-0.37,6,3
1772818601.323573,1440719,-0.07,0.16,-0.13,-175.31,-84.62,11.63,-1.62,1.75,0.50,-0.10,0.11,0.03,45.69,-70.25,2.19,-0.19,-0.31,-0.19,5,2
1772818601.364020,1440759,-0.07,0.13,-0.16,-175.25,-84.56,11.63,-0.25,1.19,-0.31,-0.09,0.11,0.04,45.69,-70.25,2.19,-0.19,-0.25,-0.56,5,2
1772818601.403582,1440799,0.00,0.12,-0.17,-175.25,-84.56,11.63,0.44,1.00,0.25,-0.07,0.10,-0.03,45.75,-70.25,2.19,0.00,-0.44,-0.88,5,2
1772818601.443935,1440839,-0.03,0.08,-0.11,-175.25,-84.50,11.63,0.56,0.31,0.31,-0.06,0.09,-0.01,45.75,-70.25,2.25,0.19,-0.37,-0.25,4,2
1772818601.484203,1440880,-0.06,0.11,-0.12,-175.25,-84.50,11.63,-0.75,-0.25,0.00,-0.08,0.09,0.00,45.75,-70.25,2.25,-0.06,-0.06,-0.25,4,2
1772818601.524381,1440920,-0.08,0.14,-0.10,-175.25,-84.50,11.56,-0.69,-0.44,-0.06,-0.09,0.11,0.01,45.75,-70.25,2.25,0.00,0.06,-0.06,3,2
1772818601.564474,1440960,-0.08,0.13,-0.13,-175.25,-84.50,11.56,0.56,-0.56,-0.44,-0.08,0.12,0.03,45.75,-70.25,2.25,-0.06,-0.13,-0.13,2,3
1772818601.604596,1441000,-0.06,0.09,-0.13,-175.31,-84.50,11.56,0.81,-0.37,-0.50,-0.09,0.12,-0.01,45.75,-70.25,2.25,0.25,0.19,-0.25,3,3
1772818601.644927,1441040,-0.06,0.07,-0.10,-175.31,-84.50,11.63,0.56,-0.37,-0.44,-0.07,0.07,-0.01,45.75,-70.25,2.25,-0.19,-0.31,-0.44,2,3
1772818601.684927,1441080,-0.09,0.10,-0.10,-175.31,-84.56,11.63,-0.25,-0.50,-0.31,-0.09,0.07,0.00,45.75,-70.25,2.25,0.19,-0.44,-0.13,2,3
1772818601.725116,1441121,-0.05,0.07,-0.09,-175.31,-84.56,11.63,-0.06,-0.31,-0.37,-0.05,0.13,0.02,45.69,-70.25,2.25,-1.00,-0.44,0.19,2,3
1772818601.765166,1441161,-0.11,0.14,-0.12,-175.31,-84.56,11.63,-0.44,0.06,-0.56,-0.14,0.14,0.05,45.69,-70.25,2.19,0.06,-0.31,0.44,2,3
1772818601.805483,1441201,-0.03,0.08,-0.11,-175.31,-84.56,11.69,0.94,-0.56,-1.25,-0.05,0.14,-0.09,45.75,-70.25,2.19,-0.25,-0.94,-0.50,1,3
1772818601.845445,1441241,-0.03,0.08,-0.10,-175.37,-84.62,11.75,0.94,-1.25,0.00,-0.06,0.09,-0.02,45.69,-70.19,2.25,0.19,-1.19,-0.81,1,3
1772818601.885750,1441281,-0.06,0.03,-0.07,-175.37,-84.62,11.75,0.56,-0.31,-0.13,-0.06,0.11,0.02,45.63,-70.12,2.25,0.19,-0.62,-0.31,1,4
1772818601.925730,1441321,-0.12,0.09,-0.08,-175.37,-84.62,11.75,-0.94,-0.56,0.00,-0.10,0.09,0.02,45.63,-70.12,2.25,0.19,-0.62,0.00,1,4
1772818601.966032,1441361,-0.11,0.14,-0.11,-175.37,-84.62,11.75,-0.56,0.31,-0.13,-0.10,0.16,0.06,45.56,-70.12,2.25,0.19,-0.81,-0.06,1,4
1772818602.005998,1441401,-0.05,0.11,-0.12,-175.37,-84.62,11.75,0.81,0.37,-0.62,-0.07,0.12,0.02,45.50,-70.12,2.19,-0.13,-0.50,-0.44,1,4
1772818602.046031,1441442,-0.02,0.08,-0.11,-175.37,-84.62,11.75,1.00,0.00,0.13,-0.05,0.12,-0.04,45.50,-70.06,2.19,0.19,-0.62,-0.50,2,5
1772818602.086295,1441482,-0.05,0.07,-0.09,-175.37,-84.62,11.81,0.37,-0.50,-0.06,-0.07,0.12,-0.01,45.44,-70.06,2.19,0.13,-0.81,-0.44,2,5
1772818602.126869,1441522,-0.06,0.10,-0.11,-175.37,-84.62,11.81,-0.19,-0.75,-0.19,-0.08,0.10,0.01,45.38,-70.06,2.19,-0.31,-0.56,-0.19,2,5
1772818602.167080,1441562,-0.09,0.09,-0.08,-175.37,-84.69,11.81,-0.06,-0.69,0.00,-0.08,0.11,0.02,45.38,-70.06,2.19,-0.19,-0.44,-0.19,2,5
1772818602.206930,1441602,-0.09,0.10,-0.10,-175.37,-84.69,11.81,0.25,-0.31,-0.13,-0.07,0.10,0.04,45.38,-70.06,2.19,-0.19,-0.62,-0.50,2,5
1772818602.246591,1441642,-0.07,0.10,-0.09,-175.37,-84.69,11.81,0.25,0.13,0.06,-0.05,0.10,0.00,45.38,-70.06,2.19,0.00,-0.50,-0.50,3,5
1772818602.286838,1441682,-0.09,0.08,-0.07,-175.37,-84.69,11.81,0.13,-0.06,0.25,-0.07,0.10,0.02,45.38,-70.06,2.19,0.13,-0.44,-0.19,3,5
1772818602.327033,1441723,-0.09,0.11,-0.10,-175.37,-84.69,11.81,-0.06,0.25,0.13,-0.07,0.10,0.03,45.38,-70.06,2.19,0.31,0.06,-0.25,4,5
1772818602.367468,1441763,-0.05,0.08,-0.13,-175.37,-84.69,11.81,-0.31,0.62,-0.13,-0.03,0.12,0.01,45.38,-70.06,2.19,-0.75,0.31,-0.06,4,5
1772818602.407269,1441803,-0.06,0.16,-0.14,-175.37,-84.62,11.81,-0.13,-0.25,-0.25,-0.09,0.11,0.01,45.38,-70.06,2.19,0.00,0.50,0.37,3,4
1772818602.447557,1441843,-0.03,0.04,-0.10,-175.37,-84.69,11.88,0.62,0.31,-0.75,-0.04,0.09,-0.05,45.38,-70.06,2.19,-0.44,0.13,-0.62,3,4
1772818602.487387,1441883,-0.03,0.08,-0.08,-175.44,-84.69,11.88,0.37,-0.44,0.69,-0.05,0.09,0.00,45.44,-70.00,2.19,0.06,0.37,-0.25,4,4
1772818602.527776,1441923,-0.11,0.05,-0.11,-175.37,-84.69,11.88,-0.69,0.25,0.13,-0.10,0.10,0.02,45.44,-70.06,2.19,-0.25,1.06,0.13,3,3
1772818602.568124,1441964,-0.12,0.12,-0.10,-175.37,-84.69,11.81,-1.44,0.31,0.00,-0.09,0.11,0.06,45.56,-70.06,2.19,-0.44,0.69,0.19,4,3
1772818602.608224,1442004,-0.11,0.14,-0.12,-175.37,-84.69,11.75,-0.50,0.88,-0.13,-0.08,0.15,0.05,45.63,-70.12,2.19,-0.06,0.50,0.25,3,3
1772818602.648074,1442044,-0.06,0.11,-0.15,-175.37,-84.62,11.75,0.69,0.81,-0.31,-0.08,0.10,0.00,45.63,-70.12,2.25,-0.06,0.50,-0.06,3,3
1772818602.688213,1442084,-0.01,0.09,-0.12,-175.37,-84.62,11.81,0.56,1.00,0.19,-0.08,0.11,-0.02,45.69,-70.12,2.25,0.56,0.50,-0.13,3,3
1772818602.728516,1442124,-0.03,0.08,-0.11,-175.37,-84.62,11.81,0.62,-0.31,0.06,-0.07,0.11,0.00,45.69,-70.12,2.25,0.00,0.31,-0.13,2,3
1772818602.769162,1442164,-0.11,0.08,-0.09,-175.37,-84.62,11.81,-0.62,-0.19,-0.37,-0.09,0.12,0.01,45.69,-70.12,2.25,-0.56,0.31,0.13,2,3
1772818602.808846,1442204,-0.09,0.12,-0.11,-175.37,-84.62,11.81,-0.37,0.00,-0.37,-0.09,0.11,0.01,45.69,-70.12,2.25,-0.13,0.37,0.00,3,3
1772818602.848921,1442244,-0.07,0.10,-0.10,-175.37,-84.62,11.81,0.69,0.00,-0.19,-0.10,0.13,0.00,45.69,-70.12,2.25,-0.06,0.31,-0.31,3,3
1772818602.888929,1442285,-0.06,0.07,-0.10,-175.37,-84.62,11.81,0.62,0.25,0.25,-0.06,0.11,-0.01,45.69,-70.12,2.25,-0.19,0.13,-0.56,3,3
1772818602.929336,1442325,-0.06,0.04,-0.09,-175.44,-84.62,11.88,0.31,-0.44,0.69,-0.07,0.13,0.01,45.69,-70.12,2.25,-0.31,0.37,-0.37,3,4
1772818602.969494,1442365,-0.11,0.10,-0.10,-175.37,-84.62,11.81,-1.06,0.06,0.56,-0.12,0.06,0.03,45.69,-70.12,2.25,0.13,0.13,-0.25,2,4
1772818603.009473,1442405,-0.09,0.12,-0.15,-175.37,-84.62,11.75,-1.06,0.00,0.62,-0.11,0.15,-0.01,45.75,-70.12,2.25,-0.75,0.75,-0.06,2,4
1772818603.049539,1442445,-0.09,0.15,-0.12,-175.37,-84.56,11.75,-0.69,0.00,0.00,-0.11,0.13,-0.04,45.75,-70.12,2.25,-0.50,0.37,0.13,2,4
1772818603.089994,1442485,-0.02,0.07,-0.08,-175.37,-84.62,11.75,0.25,-0.69,-0.13,-0.03,0.12,-0.06,45.81,-70.12,2.19,-0.81,-0.06,-0.88,1,4
1772818603.130239,1442526,-0.09,0.08,-0.08,-175.37,-84.62,11.69,0.44,-0.69,0.81,-0.03,0.08,-0.01,45.88,-70.12,2.25,-0.13,-0.13,-0.81,1,3
1772818603.170518,1442566,-0.09,0.06,-0.10,-175.31,-84.56,11.69,-0.50,0.13,1.12,-0.05,0.12,-0.01,45.94,-70.12,2.25,-0.37,0.00,-0.25,1,3
1772818603.210347,1442606,-0.13,0.10,-0.11,-175.25,-84.56,11.56,-1.31,0.56,0.75,-0.11,0.10,0.02,45.94,-70.12,2.25,-0.25,0.06,-0.25,1,3
1772818603.250612,1442646,-0.09,0.15,-0.10,-175.25,-84.50,11.50,-1.56,0.56,0.50,-0.10,0.14,-0.02,45.94,-70.12,2.25,-0.19,-0.13,-0.13,1,2
1772818603.290548,1442686,-0.07,0.11,-0.12,-175.25,-84.50,11.50,0.19,0.31,-0.06,-0.10,0.10,0.05,45.94,-70.12,2.25,-0.31,0.00,-0.56,0,2
1772818603.331002,1442726,-0.03,0.09,-0.11,-175.25,-84.50,11.50,0.81,0.62,0.44,-0.05,0.11,-0.04,45.94,-70.12,2.25,-0.31,0.06,-0.44,1,2
1772818603.370983,1442767,-0.04,0.08,-0.16,-175.25,-84.50,11.50,0.13,-0.31,0.19,-0.09,0.11,-0.02,45.94,-70.12,2.25,0.00,0.13,-0.13,1,2
1772818603.411255,1442807,-0.07,0.10,-0.13,-175.25,-84.50,11.50,-0.69,-0.37,0.00,-0.08,0.11,0.00,45.94,-70.12,2.25,-0.13,-0.13,0.00,1,2
1772818603.451126,1442847,-0.08,0.15,-0.11,-175.25,-84.50,11.50,-0.44,0.00,0.00,-0.08,0.12,0.01,45.94,-70.12,2.25,-0.25,0.13,0.00,1,1
1772818603.491680,1442887,-0.06,0.11,-0.09,-175.25,-84.50,11.50,0.25,-0.31,-0.13,-0.09,0.11,-0.04,45.94,-70.12,2.25,-0.31,-0.13,-0.37,2,2
1772818603.531643,1442927,-0.04,0.11,-0.10,-175.25,-84.50,11.50,0.37,-0.25,-0.37,-0.08,0.09,0.00,45.88,-70.12,2.25,-0.37,-0.81,-0.44,2,2
1772818603.571658,1442967,-0.09,0.07,-0.08,-175.25,-84.50,11.50,0.25,-0.88,0.00,-0.05,0.08,0.03,45.81,-70.06,2.25,0.13,-0.94,-0.25,2,2
1772818603.611657,1443007,-0.12,0.10,-0.11,-175.25,-84.50,11.50,0.00,0.06,0.25,-0.09,0.05,0.02,45.75,-70.06,2.25,0.13,-0.50,0.13,2,2
1772818603.651821,1443047,-0.09,0.11,-0.12,-175.25,-84.50,11.50,-0.50,0.19,-0.50,-0.08,0.16,0.00,45.81,-70.06,2.25,0.00,-0.06,0.06,2,3
1772818603.692449,1443088,-0.08,0.16,-0.14,-175.25,-84.50,11.50,-0.25,-0.19,-1.00,-0.12,0.14,-0.01,45.81,-70.06,2.25,-0.44,-0.25,0.00,3,3
1772818603.731942,1443127,0.00,0.06,-0.10,-175.31,-84.56,11.56,1.56,-0.50,-1.06,-0.06,0.13,-0.07,45.75,-70.06,2.25,0.13,-1.50,-0.75,3,3
1772818603.772471,1443168,-0.08,0.07,-0.08,-175.31,-84.62,11.63,1.06,-0.81,0.25,-0.03,0.08,-0.01,45.75,-70.00,2.25,0.25,-1.06,-0.50,3,3
1772818603.812378,1443208,-0.11,0.05,-0.10,-175.31,-84.62,11.69,0.00,-0.13,0.37,-0.10,0.13,0.02,45.69,-70.00,2.25,0.00,-0.31,0.13,3,4
1772818603.852493,1443248,-0.13,0.12,-0.11,-175.31,-84.62,11.63,-1.50,0.13,0.00,-0.09,0.11,0.00,45.69,-70.00,2.25,0.19,-0.44,0.13,4,4
1772818603.892919,1443288,-0.08,0.16,-0.14,-175.31,-84.62,11.63,-0.56,0.69,-0.19,-0.07,0.14,0.00,45.69,-69.94,2.25,-0.50,-0.37,-0.37,3,3
1772818603.932925,1443329,-0.04,0.09,-0.13,-175.31,-84.62,11.63,1.12,0.25,-0.37,-0.06,0.12,0.00,45.69,-69.94,2.25,0.00,-0.31,-0.50,4,3
1772818603.973283,1443369,-0.04,0.05,-0.12,-175.31,-84.62,11.69,0.88,0.06,-0.25,-0.05,0.13,-0.04,45.69,-69.94,2.25,0.00,-0.44,-0.50,5,3
1772818604.013469,1443409,-0.05,0.07,-0.14,-175.31,-84.62,11.69,-0.13,-0.75,-0.06,-0.10,0.12,0.01,45.63,-69.94,2.25,0.00,-0.50,-0.31,5,3
1772818604.053552,1443449,-0.09,0.10,-0.12,-175.31,-84.62,11.69,-0.31,-0.69,-0.06,-0.06,0.15,0.00,45.63,-69.94,2.25,-0.13,-0.50,-0.25,5,2
1772818604.093954,1443489,-0.11,0.13,-0.09,-175.31,-84.62,11.69,-0.19,-0.56,-0.06,-0.09,0.14,0.03,45.63,-69.94,2.25,-0.25,-0.37,-0.13,5,2
1772818604.133928,1443529,-0.09,0.09,-0.11,-175.31,-84.62,11.69,0.19,0.00,-0.06,-0.09,0.11,0.01,45.56,-69.94,2.25,-0.25,-0.31,-0.25,7,2
1772818604.173961,1443570,-0.05,0.08,-0.12,-175.31,-84.62,11.69,0.19,0.06,0.00,-0.07,0.09,0.00,45.56,-69.94,2.25,-0.13,-0.56,-0.37,7,1
1772818604.214012,1443610,-0.07,0.10,-0.15,-175.31,-84.62,11.69,-0.06,0.00,0.31,-0.08,0.14,0.03,45.50,-69.94,2.25,0.06,-0.25,-0.31,8,1
1772818604.254033,1443650,-0.08,0.10,-0.15,-175.31,-84.62,11.69,-0.19,0.44,-0.13,-0.09,0.08,0.03,45.50,-69.94,2.25,-0.13,0.13,0.00,8,1
1772818604.294033,1443690,-0.12,0.09,-0.14,-175.31,-84.62,11.69,-0.62,0.25,0.37,-0.15,0.12,0.06,45.50,-69.94,2.25,0.31,0.06,0.06,8,1
1772818604.334696,1443730,-0.09,0.13,-0.13,-175.31,-84.62,11.69,0.37,-0.19,-1.06,-0.06,0.15,-0.04,45.56,-69.94,2.25,-0.88,-0.31,-0.31,9,1
1772818604.374844,1443770,-0.04,0.10,-0.11,-175.37,-84.69,11.69,0.25,-0.44,0.31,-0.05,0.11,0.03,45.56,-69.94,2.25,0.13,-0.56,-0.62,9,1
1772818604.414547,1443810,-0.07,0.07,-0.13,-175.37,-84.69,11.69,0.25,0.00,0.31,-0.06,0.09,0.05,45.56,-69.87,2.25,0.19,0.19,0.06,9,1
1772818604.454683,1443850,-0.11,0.12,-0.14,-175.37,-84.62,11.69,-0.88,0.06,0.62,-0.08,0.14,0.03,45.56,-69.87,2.25,0.06,0.37,0.25,9,2
1772818604.495023,1443891,-0.13,0.14,-0.13,-175.31,-84.62,11.63,-0.94,0.31,0.00,-0.10,0.12,0.07,45.56,-69.87,2.25,-0.13,0.44,-0.06,9,2
1772818604.535207,1443931,-0.08,0.13,-0.14,-175.37,-84.69,11.63,0.31,0.44,-0.75,-0.09,0.12,0.03,45.56,-69.87,2.25,-0.44,0.37,-0.13,8,2
1772818604.575472,1443971,-0.03,0.06,-0.15,-175.37,-84.69,11.69,0.81,0.13,-0.13,-0.03,0.14,-0.01,45.63,-69.94,2.25,0.06,0.75,-0.06,9,2
1772818604.615499,1444011,-0.03,0.05,-0.14,-175.37,-84.69,11.69,0.06,-0.81,0.19,-0.07,0.14,-0.01,45.63,-69.94,2.25,0.00,0.62,0.13,9,3
1772818604.655677,1444051,-0.08,0.10,-0.12,-175.37,-84.69,11.69,-0.81,-0.81,0.06,-0.10,0.14,0.02,45.69,-69.94,2.25,-0.13,0.69,0.13,9,3
1772818604.695732,1444091,-0.10,0.14,-0.10,-175.37,-84.69,11.69,-0.88,-0.31,0.00,-0.11,0.14,0.00,45.69,-69.94,2.25,-0.37,0.94,0.00,9,3
1772818604.736175,1444132,-0.12,0.14,-0.09,-175.37,-84.69,11.69,0.19,-0.13,-0.19,-0.08,0.12,0.00,45.75,-69.94,2.25,-0.44,0.56,-0.31,9,3
1772818604.776349,1444172,-0.07,0.08,-0.11,-175.37,-84.69,11.69,0.62,0.31,0.06,-0.07,0.13,-0.02,45.75,-69.94,2.25,-0.19,0.19,-0.13,8,4
1772818604.816255,1444212,-0.08,0.08,-0.12,-175.37,-84.69,11.69,0.50,0.56,0.25,-0.04,0.11,-0.03,45.75,-69.94,2.25,-0.06,0.37,-0.13,8,3
1772818604.856278,1444252,-0.09,0.13,-0.15,-175.37,-84.69,11.69,-0.50,1.06,0.13,-0.11,0.09,0.02,45.75,-70.00,2.25,0.25,0.56,-0.13,8,3
1772818604.896504,1444292,-0.06,0.11,-0.17,-175.37,-84.62,11.69,-0.25,1.50,-0.44,-0.06,0.17,-0.07,45.81,-70.00,2.25,-0.69,1.25,0.13,8,3
1772818604.936649,1444332,-0.01,0.16,-0.17,-175.37,-84.62,11.69,-0.44,1.06,-0.25,-0.13,0.16,0.03,45.88,-70.00,2.25,0.00,0.62,0.62,8,3
1772818604.977025,1444373,-0.01,0.08,-0.16,-175.37,-84.62,11.69,0.50,0.37,-1.50,-0.05,0.15,-0.07,45.94,-70.00,2.25,-0.62,0.37,-0.25,8,3
1772818605.017137,1444413,0.00,0.09,-0.14,-175.37,-84.62,11.75,0.88,-0.75,0.31,-0.06,0.11,-0.01,45.94,-70.00,2.25,0.37,-0.19,-0.50,7,3
1772818605.056946,1444453,-0.08,0.04,-0.12,-175.37,-84.62,11.75,0.81,-0.94,0.69,-0.09,0.12,0.00,45.94,-70.00,2.25,0.37,0.31,-0.06,7,3
1772818605.097230,1444493,-0.09,0.09,-0.14,-175.37,-84.56,11.69,-0.81,-0.44,0.81,-0.09,0.12,0.06,45.94,-70.00,2.25,0.13,0.31,-0.13,7,3
1772818605.137317,1444533,-0.10,0.11,-0.12,-175.31,-84.56,11.63,-1.19,0.13,0.37,-0.13,0.15,0.07,45.94,-70.06,2.25,-0.37,0.06,0.00,7,3
1772818605.177735,1444573,-0.04,0.12,-0.14,-175.31,-84.56,11.56,-0.56,0.50,-0.31,-0.08,0.18,0.00,46.00,-70.06,2.25,-0.44,0.69,-0.06,7,2
1772818605.217643,1444613,-0.02,0.10,-0.14,-175.31,-84.50,11.56,1.06,-0.44,0.19,-0.09,0.15,-0.03,46.00,-70.06,2.25,-0.37,0.25,-0.50,7,2
1772818605.257817,1444653,-0.02,0.05,-0.13,-175.25,-84.50,11.56,0.06,-1.00,0.56,-0.09,0.14,-0.07,46.00,-70.06,2.25,0.13,0.00,-0.25,7,2
1772818605.297933,1444694,-0.08,0.10,-0.07,-175.25,-84.50,11.56,-0.25,-1.75,0.50,-0.08,0.15,0.01,46.00,-70.06,2.25,-0.06,0.00,-0.06,6,2
1772818605.338359,1444734,-0.11,0.13,-0.08,-175.25,-84.50,11.56,-0.88,-1.50,0.25,-0.09,0.15,0.00,46.00,-70.06,2.25,-0.19,0.25,-0.25,6,2
1772818605.378549,1444774,-0.13,0.11,-0.04,-175.25,-84.56,11.56,-0.13,-1.25,0.19,-0.09,0.13,0.01,46.00,-70.06,2.25,-0.50,0.00,-0.19,5,2
1772818605.418597,1444814,-0.11,0.11,-0.06,-175.25,-84.56,11.56,0.19,-0.19,0.37,-0.09,0.12,-0.03,46.00,-70.06,2.25,0.00,0.00,-0.25,5,2
1772818605.458713,1444854,-0.07,0.07,-0.07,-175.25,-84.56,11.50,-0.06,0.56,0.37,-0.08,0.11,-0.06,46.00,-70.06,2.25,0.06,-0.19,-0.37,4,2
1772818605.498727,1444894,-0.11,0.09,-0.08,-175.25,-84.50,11.50,-0.13,0.06,0.37,-0.11,0.14,0.01,46.00,-70.06,2.25,0.13,0.06,-0.19,4,2
1772818605.539060,1444935,-0.04,0.12,-0.10,-175.19,-84.50,11.50,-0.81,1.69,0.00,-0.08,0.16,-0.03,46.00,-70.06,2.25,-0.13,0.19,-0.06,4,1
1772818605.579306,1444975,-0.06,0.15,-0.11,-175.19,-84.44,11.44,-0.25,0.69,0.19,-0.15,0.13,0.06,46.00,-70.06,2.25,0.25,-0.31,0.06,4,1
1772818605.619346,1445015,-0.07,0.08,-0.13,-175.19,-84.44,11.44,0.75,0.88,-1.31,-0.06,0.14,-0.09,46.00,-70.06,2.19,-0.88,0.31,-0.44,3,1
1772818605.659308,1445055,0.00,0.05,-0.10,-175.19,-84.44,11.50,1.06,-0.31,0.62,-0.07,0.10,-0.07,46.00,-70.00,2.25,0.50,-0.50,-0.75,3,1
1772818605.699367,1445095,-0.10,0.01,-0.08,-175.19,-84.37,11.50,0.37,0.00,0.81,-0.11,0.10,0.00,46.00,-70.00,2.25,0.31,-0.06,-0.06,3,2
1772818605.739650,1445135,-0.10,0.08,-0.11,-175.12,-84.37,11.44,-1.62,0.81,0.69,-0.07,0.12,0.05,46.00,-70.00,2.25,-0.37,0.19,-0.06,3,2
1772818605.780175,1445176,-0.09,0.10,-0.14,-175.12,-84.31,11.31,-1.62,0.62,0.13,-0.09,0.18,0.03,46.06,-70.00,2.25,-0.88,0.06,-0.25,2,2
1772818605.819983,1445216,-0.04,0.09,-0.15,-175.12,-84.31,11.31,-0.50,0.88,-0.31,-0.10,0.15,0.00,46.06,-70.00,2.19,-0.56,0.06,-0.31,2,1
1772818605.860045,1445256,-0.04,0.07,-0.09,-175.12,-84.25,11.31,1.37,-0.19,0.37,-0.08,0.12,-0.06,46.06,-70.00,2.19,-0.06,0.00,-0.69,2,1
1772818605.900494,1445296,-0.02,0.06,-0.11,-175.06,-84.25,11.25,0.50,-0.25,0.88,-0.09,0.12,-0.07,46.13,-70.00,2.25,-0.25,-0.06,-0.37,2,1
1772818605.940568,1445336,-0.08,0.06,-0.09,-175.00,-84.19,11.25,-0.81,-1.44,0.56,-0.10,0.12,0.00,46.13,-70.00,2.25,-0.56,-0.13,-0.19,2,1
1772818605.981015,1445376,-0.05,0.12,-0.07,-175.00,-84.25,11.19,-1.56,-1.31,0.31,-0.09,0.15,-0.02,46.13,-70.00,2.25,-0.62,-0.06,-0.13,1,1
1772818606.020968,1445416,-0.08,0.14,-0.08,-175.00,-84.25,11.19,-0.37,-1.37,0.19,-0.11,0.12,0.01,46.13,-70.00,2.19,-0.19,-0.69,-0.19,1,2
1772818606.061220,1445457,-0.10,0.09,-0.03,-175.00,-84.31,11.19,0.88,-0.69,0.06,-0.08,0.11,-0.02,46.06,-70.00,2.19,0.19,-0.62,-0.44,1,3
1772818606.101378,1445497,-0.09,0.08,-0.07,-175.00,-84.31,11.19,0.50,-0.06,-0.06,-0.10,0.10,-0.03,46.06,-70.00,2.19,-0.19,-0.56,-0.37,1,3
1772818606.141335,1445537,-0.08,0.08,-0.08,-175.00,-84.31,11.19,-0.37,0.06,-0.13,-0.07,0.11,0.00,46.06,-69.94,2.19,-0.13,-0.69,-0.37,1,3
1772818606.181461,1445577,-0.09,0.10,-0.09,-175.00,-84.25,11.19,-0.56,0.62,-0.25,-0.10,0.10,-0.01,46.00,-69.94,2.19,0.37,-0.62,0.00,1,4
1772818606.221761,1445617,-0.06,0.09,-0.12,-175.00,-84.25,11.19,0.00,0.25,-0.31,-0.07,0.15,-0.02,46.00,-69.94,2.19,-0.06,-0.19,-0.06,1,5
1772818606.261744,1445657,-0.09,0.14,-0.10,-175.06,-84.31,11.19,0.62,-0.62,-1.06,-0.14,0.16,-0.04,46.00,-69.94,2.19,-0.50,-0.19,0.00,1,5
1772818606.301950,1445697,-0.01,0.03,-0.07,-175.06,-84.31,11.31,1.12,-1.12,-0.88,-0.07,0.16,-0.05,46.00,-69.94,2.19,0.06,-1.31,-0.88,1,6
1772818606.341855,1445738,-0.07,0.08,-0.08,-175.06,-84.37,11.38,0.88,-0.69,0.00,-0.05,0.10,0.02,45.94,-69.87,2.19,0.19,-0.94,-0.44,1,6
1772818606.382053,1445778,-0.09,0.06,-0.08,-175.06,-84.37,11.38,-0.19,0.25,0.19,-0.11,0.13,0.03,45.88,-69.87,2.19,0.19,-0.50,0.13,2,6
1772818606.422240,1445818,-0.13,0.09,-0.09,-175.06,-84.37,11.31,-0.88,0.13,-0.25,-0.11,0.12,0.03,45.88,-69.87,2.19,0.25,-0.37,0.00,2,6
1772818606.462486,1445858,-0.08,0.11,-0.10,-175.06,-84.37,11.31,-0.19,0.69,-0.56,-0.09,0.16,0.00,45.88,-69.81,2.19,-0.25,-0.62,-0.13,2,6
1772818606.502563,1445898,-0.05,0.05,-0.10,-175.06,-84.37,11.31,0.62,0.13,-0.31,-0.10,0.14,-0.01,45.81,-69.81,2.19,-0.06,-0.62,-0.62,1,5
1772818606.542742,1445938,-0.03,0.05,-0.11,-175.06,-84.37,11.38,0.44,-0.50,0.37,-0.07,0.15,-0.04,45.88,-69.81,2.19,0.00,-0.44,-0.44,1,5
1772818606.583019,1445979,-0.06,0.07,-0.10,-175.06,-84.37,11.38,-0.13,-0.81,0.31,-0.11,0.13,0.01,45.81,-69.81,2.19,0.00,-0.44,-0.37,2,5
1772818606.623137,1446018,-0.09,0.10,-0.10,-175.06,-84.37,11.38,-0.50,-0.44,0.13,-0.08,0.14,0.00,45.81,-69.81,2.19,-0.13,-0.37,-0.19,2,4
1772818606.663315,1446059,-0.12,0.10,-0.06,-175.06,-84.37,11.38,-0.13,-0.50,0.13,-0.07,0.13,-0.01,45.81,-69.81,2.19,-0.25,-0.31,-0.37,2,4
1772818606.702927,1446099,-0.11,0.08,-0.07,-175.06,-84.37,11.38,0.19,0.13,0.00,-0.08,0.13,0.02,45.81,-69.81,2.19,-0.25,-0.62,-0.44,3,3
1772818606.743311,1446139,-0.06,0.08,-0.07,-175.06,-84.37,11.38,0.06,0.13,0.19,-0.07,0.12,0.01,45.81,-69.81,2.19,-0.25,-0.31,-0.44,3,3
1772818606.783737,1446179,-0.08,0.08,-0.08,-175.06,-84.37,11.38,-0.13,0.19,0.37,-0.10,0.14,0.02,45.81,-69.81,2.19,-0.13,-0.25,-0.31,3,3
1772818606.823637,1446219,-0.09,0.11,-0.08,-175.06,-84.37,11.38,-0.25,0.19,0.31,-0.09,0.10,0.04,45.81,-69.81,2.19,0.06,0.00,-0.25,3,3
1772818606.863489,1446259,-0.05,0.08,-0.08,-175.06,-84.37,11.38,-0.19,0.62,0.06,-0.05,0.15,0.00,45.81,-69.81,2.19,-0.50,0.69,0.00,3,3
1772818606.903568,1446299,-0.10,0.12,-0.14,-175.06,-84.37,11.38,-0.50,0.69,0.13,-0.13,0.13,0.05,45.81,-69.81,2.19,0.00,0.31,0.44,3,3
1772818606.944160,1446340,-0.06,0.09,-0.10,-175.12,-84.37,11.38,0.50,-0.13,-1.19,-0.07,0.14,0.00,45.88,-69.81,2.19,-0.69,-0.25,-0.56,3,3
1772818606.984341,1446380,-0.04,0.08,-0.11,-175.12,-84.44,11.38,0.25,-0.13,0.37,-0.05,0.10,0.00,45.88,-69.81,2.19,0.06,-0.31,-0.62,2,3
1772818607.024118,1446420,-0.08,0.06,-0.11,-175.12,-84.37,11.38,0.06,-0.06,0.37,-0.08,0.11,0.02,45.94,-69.81,2.19,0.25,0.62,0.19,2,3
1772818607.064347,1446460,-0.12,0.10,-0.10,-175.12,-84.37,11.38,-1.00,0.25,0.31,-0.09,0.15,0.04,45.94,-69.81,2.25,-0.13,0.62,0.31,2,3
1772818607.104575,1446500,-0.11,0.12,-0.09,-175.12,-84.37,11.31,-1.00,0.31,-0.25,-0.09,0.18,0.07,46.00,-69.87,2.25,-0.44,0.06,0.00,1,3
1772818607.144658,1446540,-0.04,0.11,-0.13,-175.12,-84.44,11.31,0.31,0.56,-0.75,-0.07,0.14,0.04,46.00,-69.87,2.25,-0.37,0.88,-0.06,1,4
1772818607.185277,1446581,-0.05,0.06,-0.13,-175.12,-84.44,11.38,1.06,0.25,-0.19,-0.06,0.14,-0.01,46.06,-69.87,2.25,-0.06,0.81,-0.06,1,3
1772818607.225025,1446621,-0.03,0.07,-0.15,-175.12,-84.44,11.38,0.37,-0.19,-0.06,-0.08,0.13,-0.03,46.13,-69.87,2.25,0.25,0.62,0.31,1,3
1772818607.265111,1446661,-0.08,0.08,-0.09,-175.12,-84.44,11.38,-0.31,-0.37,-0.13,-0.09,0.14,0.03,46.13,-69.87,2.25,-0.19,0.69,0.31,1,3
1772818607.305378,1446701,-0.09,0.13,-0.11,-175.12,-84.44,11.38,-0.31,0.06,-0.31,-0.10,0.12,0.00,46.19,-69.94,2.25,-0.31,0.94,0.06,1,3
1772818607.345549,1446741,-0.08,0.11,-0.10,-175.12,-84.44,11.38,0.75,0.13,-0.44,-0.09,0.14,0.00,46.25,-69.94,2.25,-0.44,0.62,-0.31,1,2
1772818607.385840,1446781,-0.06,0.07,-0.10,-175.12,-84.44,11.38,0.62,-0.31,-0.37,-0.08,0.13,-0.02,46.25,-69.94,2.25,-0.37,0.37,-0.37,2,2
1772818607.425575,1446821,-0.08,0.06,-0.10,-175.12,-84.44,11.38,0.25,-0.19,0.00,-0.09,0.12,0.00,46.25,-69.94,2.25,-0.37,0.37,-0.37,3,2
1772818607.465809,1446862,-0.13,0.09,-0.07,-175.12,-84.44,11.38,-0.25,0.06,0.06,-0.09,0.14,0.02,46.25,-69.94,2.25,-0.13,0.31,-0.31,2,2
1772818607.505850,1446902,-0.06,0.09,-0.08,-175.12,-84.44,11.38,-0.56,0.94,0.06,-0.07,0.14,0.00,46.25,-69.94,2.25,0.13,0.62,0.31,2,2
1772818607.545970,1446942,-0.08,0.11,-0.13,-175.12,-84.37,11.38,-0.50,0.56,0.00,-0.14,0.18,0.07,46.31,-69.94,2.25,0.19,0.37,0.37,2,2
1772818607.586391,1446982,-0.04,0.12,-0.15,-175.19,-84.44,11.44,0.13,0.19,-1.31,-0.09,0.17,-0.08,46.31,-70.00,2.19,-1.00,0.75,0.06,2,2
1772818607.626583,1447022,-0.02,0.06,-0.11,-175.19,-84.44,11.50,1.25,-0.81,-0.13,-0.04,0.14,-0.03,46.31,-70.00,2.19,-0.50,0.06,-0.62,2,2
1772818607.666489,1447062,-0.10,0.06,-0.06,-175.19,-84.50,11.56,1.00,-0.81,0.31,-0.07,0.09,0.01,46.31,-70.06,2.19,0.06,-0.19,-0.31,2,2
1772818607.706652,1447102,-0.10,0.04,-0.08,-175.19,-84.50,11.56,-0.19,-0.13,0.62,-0.08,0.12,0.01,46.31,-70.06,2.19,-0.13,0.19,-0.06,2,2
1772818607.746838,1447143,-0.15,0.10,-0.10,-175.19,-84.50,11.50,-1.50,0.37,0.37,-0.08,0.13,0.02,46.25,-70.06,2.19,0.00,0.13,-0.25,3,2
1772818607.787231,1447183,-0.10,0.15,-0.10,-175.19,-84.44,11.44,-0.75,0.62,0.13,-0.07,0.17,0.02,46.25,-70.06,2.12,-0.13,0.06,-0.19,2,1
1772818607.826942,1447223,-0.06,0.10,-0.12,-175.19,-84.44,11.44,0.88,0.50,0.06,-0.08,0.12,-0.01,46.19,-70.06,2.12,0.00,0.19,-0.62,1,1
1772818607.867197,1447263,-0.02,0.06,-0.14,-175.19,-84.44,11.50,1.00,0.19,0.19,-0.07,0.14,-0.04,46.19,-70.06,2.12,-0.19,-0.13,-0.56,2,1
1772818607.907651,1447303,-0.06,0.08,-0.14,-175.19,-84.44,11.50,-0.31,-0.37,0.31,-0.10,0.11,0.00,46.19,-70.06,2.12,-0.13,-0.19,-0.31,2,1
1772818607.947641,1447343,-0.11,0.12,-0.10,-175.19,-84.44,11.44,-1.00,-0.44,0.00,-0.10,0.12,0.03,46.13,-70.12,2.12,-0.19,-0.06,-0.13,2,1
1772818607.987614,1447383,-0.07,0.12,-0.12,-175.19,-84.44,11.44,-0.75,0.50,0.19,-0.10,0.14,0.00,46.13,-70.12,2.12,-0.06,0.00,0.06,2,1
1772818608.027942,1447424,-0.06,0.13,-0.11,-175.19,-84.44,11.44,0.00,-0.13,0.44,-0.11,0.13,-0.01,46.13,-70.12,2.12,0.06,-0.06,-0.25,3,1
1772818608.068134,1447464,-0.04,0.11,-0.06,-175.19,-84.44,11.44,0.37,-0.31,0.31,-0.07,0.12,-0.02,46.06,-70.12,2.06,-0.06,-0.25,-0.56,3,1
1772818608.107961,1447504,-0.14,0.08,-0.06,-175.19,-84.44,11.44,0.62,-0.25,0.06,-0.07,0.07,0.04,46.06,-70.12,2.12,-0.50,0.00,-0.56,3,1
1772818608.148197,1447544,-0.08,0.08,-0.11,-175.19,-84.44,11.44,-0.69,0.94,0.31,-0.10,0.07,0.05,46.06,-70.12,2.06,-0.37,0.13,-0.06,3,1
1772818608.188667,1447584,-0.01,0.11,-0.12,-175.19,-84.44,11.38,-1.06,0.56,0.31,-0.06,0.11,-0.02,46.06,-70.12,2.06,-0.44,0.31,0.19,3,1
1772818608.228191,1447624,0.00,0.17,-0.16,-175.19,-84.44,11.38,-0.69,1.06,0.62,-0.14,0.13,0.02,46.06,-70.19,2.06,0.62,0.25,0.37,4,1
1772818608.268811,1447664,-0.04,0.07,-0.09,-175.19,-84.44,11.38,1.75,-0.69,-0.81,-0.07,0.13,-0.08,46.00,-70.19,2.06,-1.00,0.06,-0.50,4,1
1772818608.308749,1447704,-0.08,0.09,-0.07,-175.19,-84.44,11.44,0.75,-0.69,0.50,-0.06,0.08,0.00,46.00,-70.19,2.06,0.25,-1.12,-0.56,4,1
1772818608.349146,1447745,-0.04,0.06,-0.05,-175.19,-84.44,11.44,-0.19,-1.12,0.00,-0.06,0.08,0.01,45.94,-70.12,2.00,-0.25,-0.75,-0.25,5,1
1772818608.389490,1447785,-0.12,0.13,-0.10,-175.12,-84.44,11.38,-1.44,-0.44,-0.19,-0.07,0.10,0.07,45.88,-70.12,2.00,-0.06,-0.62,-0.13,5,1
1772818608.429362,1447825,-0.09,0.14,-0.12,-175.12,-84.44,11.31,-0.56,0.31,-0.31,-0.11,0.12,0.06,45.81,-70.12,2.00,-0.25,-0.69,0.06,5,1
1772818608.469477,1447865,-0.06,0.10,-0.08,-175.12,-84.44,11.38,1.62,0.13,-0.81,-0.08,0.09,0.00,45.75,-70.12,2.00,-0.25,-0.94,-0.50,6,1
1772818608.509616,1447905,-0.03,0.06,-0.13,-175.12,-84.37,11.38,1.25,-0.06,-0.37,-0.09,0.09,0.00,45.63,-70.12,2.00,-0.06,-1.00,-0.56,6,1
1772818608.549959,1447945,-0.05,0.02,-0.09,-175.12,-84.37,11.44,0.44,-0.94,-0.31,-0.07,0.10,-0.02,45.56,-70.06,1.94,0.19,-0.81,-0.19,6,1
1772818608.590118,1447986,-0.07,0.09,-0.10,-175.12,-84.44,11.44,-0.25,-1.06,0.00,-0.06,0.08,0.00,45.50,-70.06,1.94,0.00,-0.56,-0.06,6,1
1772818608.630102,1448026,-0.09,0.10,-0.09,-175.12,-84.44,11.44,-0.13,-0.44,-0.06,-0.09,0.07,0.01,45.50,-70.06,1.94,-0.31,-0.56,-0.19,6,1
1772818608.670199,1448066,-0.10,0.09,-0.08,-175.12,-84.44,11.44,0.06,-0.62,0.00,-0.06,0.12,0.01,45.44,-70.06,1.94,-0.31,-0.50,-0.31,6,1
1772818608.710252,1448106,-0.09,0.09,-0.07,-175.12,-84.37,11.38,0.19,0.13,-0.13,-0.07,0.09,0.00,45.44,-70.06,1.94,0.00,-0.56,-0.31,6,3
1772818608.750472,1448146,-0.08,0.07,-0.05,-175.12,-84.37,11.38,0.06,0.06,0.06,-0.05,0.08,-0.01,45.44,-70.06,1.94,-0.06,-0.56,-0.37,6,2
