host_time_s,t_ms,ax1,ay1,az1,roll1,pitch1,yaw1,gx1,gy1,gz1,ax2,ay2,az2,roll2,pitch2,yaw2,gx2,gy2,gz2,emg1,emg2
1772823605.362188,6442917,-0.13,-0.01,-0.09,-132.00,-82.50,100.19,-1.00,13.50,-3.25,-0.04,-0.06,0.18,75.44,-78.87,12.13,1.06,-6.19,-2.19,4,33
1772823605.364142,6442958,0.11,-0.02,-0.24,-135.44,-82.19,100.25,-0.13,12.44,-2.94,0.00,0.04,-0.05,74.25,-78.75,12.25,3.00,-5.62,-0.75,4,34
1772823605.365440,6442999,0.17,0.03,-0.16,-138.25,-81.94,100.31,-0.19,9.44,-3.56,-0.03,-0.05,0.03,73.00,-78.69,12.31,1.06,-5.94,-0.62,5,36
1772823605.366958,6443039,0.09,-0.05,-0.19,-140.50,-81.75,100.44,0.13,7.19,-2.75,-0.05,0.01,-0.01,72.00,-78.62,12.31,-1.44,-4.37,-0.31,5,32
1772823605.368966,6443078,0.14,-0.17,-0.15,-142.31,-81.69,100.50,-0.81,4.00,-3.31,-0.02,0.03,-0.05,71.31,-78.56,12.25,-1.94,-3.94,-0.62,4,28
1772823605.369554,6443118,0.08,-0.15,-0.09,-143.56,-81.62,100.56,-2.81,1.44,-2.06,0.02,0.06,-0.10,70.62,-78.50,12.13,-1.50,-4.00,-0.06,5,27
1772823605.370080,6443159,0.04,-0.12,-0.05,-144.12,-81.62,100.56,-4.00,-0.37,-1.06,0.02,0.12,-0.12,70.00,-78.50,12.06,-0.50,-3.62,0.19,5,29
1772823605.370613,6443199,-0.02,-0.08,0.01,-144.12,-81.69,100.37,-4.50,-1.31,-1.06,-0.01,0.09,-0.03,69.44,-78.44,12.06,1.25,-3.19,-0.13,6,31
1772823605.371148,6443240,-0.01,0.01,0.03,-144.06,-81.75,100.25,-4.56,-1.19,-1.37,-0.02,0.03,0.02,68.81,-78.44,12.06,3.00,-2.69,-0.31,6,32
1772823605.371629,6443279,-0.16,0.15,0.04,-143.94,-81.81,100.12,-2.37,-0.88,-0.56,-0.03,-0.02,0.07,68.25,-78.37,12.19,2.31,-2.75,-0.50,7,32
1772823605.371995,6443318,-0.18,0.09,0.08,-143.75,-81.81,100.06,1.94,1.00,1.06,-0.02,-0.04,0.10,67.75,-78.31,12.25,0.88,-2.69,-0.75,8,32
1772823605.372265,6443360,-0.11,-0.14,-0.02,-143.75,-81.75,100.12,2.50,1.87,1.31,-0.04,0.00,0.00,67.37,-78.25,12.25,-0.31,-2.31,-1.50,10,30
1772823605.372509,6443400,-0.07,-0.13,-0.07,-144.12,-81.69,100.19,-0.44,2.75,0.13,0.00,-0.03,0.06,67.06,-78.12,12.31,0.62,-2.56,-1.87,11,28
1772823605.372754,6443440,-0.13,-0.03,-0.14,-144.69,-81.56,100.12,-1.81,3.81,-0.13,-0.12,-0.02,0.16,66.69,-78.00,12.44,0.56,-2.25,-1.94,11,27
1772823605.372988,6443480,0.00,-0.03,-0.14,-145.31,-81.44,100.06,-0.56,4.81,0.25,-0.07,0.00,0.02,66.50,-77.94,12.50,0.25,-0.94,-1.75,12,28
1772823605.373225,6443519,0.03,-0.07,-0.11,-145.87,-81.31,100.00,0.06,3.19,1.87,-0.03,-0.01,0.00,66.44,-77.81,12.56,-0.37,-1.50,-2.44,13,30
1772823605.373460,6443561,-0.02,-0.05,-0.08,-145.87,-81.12,99.94,-0.37,2.12,2.44,0.03,-0.04,0.02,66.37,-77.75,12.63,0.06,-1.31,-2.06,14,30
1772823605.373695,6443601,-0.20,0.02,-0.02,-145.75,-81.00,99.81,-1.00,3.87,1.75,-0.03,-0.05,0.06,66.44,-77.62,12.69,0.25,-0.25,-1.69,15,29
1772823605.373936,6443641,-0.22,0.10,0.00,-146.12,-80.81,99.69,-0.62,6.75,0.75,-0.06,-0.02,0.02,66.44,-77.56,12.81,1.06,0.19,-1.69,15,28
1772823605.374172,6443681,-0.01,0.10,-0.05,-147.06,-80.56,99.62,0.00,8.69,-0.19,-0.02,0.01,-0.01,66.50,-77.50,12.88,0.00,0.75,-1.62,15,27
1772823605.374413,6443720,0.08,0.06,-0.05,-148.19,-80.31,99.62,0.75,8.13,-0.81,-0.01,-0.01,-0.08,66.69,-77.44,12.94,0.31,0.19,-1.87,17,24
1772823605.374646,6443761,0.10,-0.01,0.00,-149.19,-80.06,99.62,1.25,5.94,-0.19,0.00,-0.02,-0.11,66.81,-77.37,13.00,0.56,0.19,-1.44,17,22
1772823605.374877,6443802,0.01,0.03,-0.01,-149.75,-79.87,99.69,1.06,3.81,1.06,-0.05,-0.05,-0.05,66.87,-77.37,13.06,0.37,0.25,-1.87,17,21
1772823605.375107,6443842,-0.10,-0.01,0.00,-150.06,-79.75,99.69,0.88,3.06,0.50,-0.03,-0.07,-0.02,67.06,-77.31,13.13,-0.50,0.25,-1.87,16,18
1772823605.375361,6443882,-0.25,-0.06,-0.02,-150.44,-79.62,99.69,-0.19,4.06,-0.88,-0.01,-0.06,0.12,67.25,-77.25,13.13,-3.44,1.56,-1.19,15,16
1772823605.375620,6443921,-0.04,-0.09,-0.04,-151.25,-79.50,99.69,-2.56,6.50,-2.50,0.03,0.02,0.06,67.81,-77.25,13.06,-3.31,2.81,0.00,14,15
1772823605.375862,6443962,0.10,0.00,-0.07,-152.37,-79.31,99.62,-3.87,5.50,-3.56,-0.03,0.00,-0.14,68.25,-77.25,13.00,-1.50,2.00,-0.37,14,13
1772823605.376093,6444002,0.01,0.10,-0.09,-153.25,-79.19,99.56,-2.56,3.25,-1.25,-0.03,-0.06,-0.06,68.50,-77.31,13.00,0.94,0.69,-0.62,14,12
1772823605.376310,6444043,-0.05,0.13,-0.04,-153.50,-79.12,99.50,0.62,2.75,0.50,-0.06,-0.07,0.00,68.50,-77.25,13.06,1.87,0.44,-0.19,13,12
1772823605.376543,6444082,0.03,0.05,-0.06,-153.62,-78.94,99.50,2.37,3.50,1.94,-0.01,-0.08,-0.14,68.56,-77.31,13.13,2.69,1.25,0.00,12,12
1772823605.376896,6444122,0.06,0.00,-0.05,-153.56,-78.81,99.50,2.25,2.12,3.12,-0.05,-0.06,-0.06,68.62,-77.31,13.25,4.37,1.62,-0.13,11,11
1772823605.377319,6444163,0.03,0.05,-0.05,-153.25,-78.69,99.50,2.75,-1.12,2.12,-0.04,-0.19,-0.07,68.56,-77.31,13.38,2.94,0.19,-0.69,9,10
1772823605.377749,6444203,-0.05,-0.08,-0.03,-152.87,-78.75,99.56,0.69,-2.19,1.00,-0.02,-0.11,0.03,68.56,-77.25,13.50,-1.69,0.19,-0.81,8,11
1772823605.378211,6444243,-0.16,-0.03,-0.03,-152.62,-78.81,99.50,-1.44,-1.25,-0.62,-0.01,-0.07,0.05,68.69,-77.25,13.44,-2.12,-0.19,-0.50,7,12
1772823605.378616,6444283,-0.03,-0.02,-0.01,-152.69,-78.87,99.50,-2.44,0.44,-1.12,-0.03,-0.05,-0.02,68.75,-77.25,13.38,-0.94,0.56,-0.13,7,13
1772823605.379009,6444323,-0.04,0.08,-0.04,-152.69,-78.87,99.37,-1.62,0.00,0.62,-0.06,-0.07,-0.03,68.75,-77.25,13.38,0.50,0.06,-0.25,6,13
1772823605.379396,6444364,-0.11,0.06,-0.04,-152.44,-78.81,99.31,-0.13,0.50,1.31,0.00,-0.08,0.08,68.75,-77.25,13.38,0.00,0.50,0.00,4,14
1772823605.379798,6444404,0.00,0.06,-0.10,-152.25,-78.81,99.25,-0.25,1.12,1.75,-0.04,-0.01,-0.12,68.81,-77.25,13.38,1.44,0.88,-0.06,3,13
1772823605.380057,6444444,0.02,0.14,-0.11,-152.00,-78.75,99.19,-0.13,-1.37,2.00,0.00,-0.04,-0.18,68.81,-77.25,13.44,3.06,0.00,-0.37,4,12
1772823605.380288,6444484,-0.04,0.12,-0.03,-151.50,-78.75,99.12,1.00,-2.12,1.44,-0.04,-0.13,0.07,68.69,-77.25,13.56,1.25,-0.06,-0.56,3,12
1772823605.380520,6444523,-0.10,-0.06,0.00,-151.25,-78.81,99.19,1.25,-2.00,-0.25,-0.03,-0.11,0.09,68.75,-77.25,13.50,-2.31,0.44,0.00,2,11
1772823605.380748,6444565,-0.15,-0.12,0.00,-151.25,-78.87,99.25,-0.88,-0.19,-1.62,-0.04,-0.03,0.01,68.87,-77.25,13.44,-2.37,0.56,0.25,2,11
1772823605.380969,6444605,-0.07,0.00,0.00,-151.62,-78.87,99.25,-2.06,1.62,-1.44,-0.04,-0.05,-0.20,69.06,-77.25,13.38,-0.56,0.31,0.50,2,11
1772823605.381187,6444645,-0.12,0.12,0.01,-151.87,-78.81,99.19,-0.56,2.37,0.13,-0.04,-0.07,-0.05,69.06,-77.25,13.38,0.37,0.25,0.31,4,9
1772823605.381407,6444685,-0.06,0.12,0.00,-152.12,-78.75,99.19,0.75,3.75,0.37,-0.01,-0.01,-0.11,69.06,-77.25,13.38,0.81,0.31,0.31,4,8
1772823605.381635,6444724,0.04,0.14,-0.04,-152.50,-78.62,99.19,1.44,3.81,-0.13,-0.05,0.00,-0.18,69.00,-77.25,13.44,2.56,-0.06,-0.37,5,7
1772823605.381871,6444765,-0.02,0.08,0.00,-152.81,-78.50,99.25,2.19,1.44,-0.50,-0.04,-0.08,-0.15,68.94,-77.25,13.56,1.12,-0.62,-0.81,6,6
1772823605.382102,6444805,-0.13,0.00,0.04,-153.06,-78.44,99.37,2.37,1.87,-1.19,0.00,-0.12,0.05,69.00,-77.25,13.56,-1.44,-0.13,-0.56,8,5
1772823605.382336,6444846,-0.15,-0.11,0.05,-153.62,-78.37,99.50,0.56,3.56,-2.50,-0.06,-0.06,0.05,69.06,-77.25,13.50,-3.31,0.06,0.25,9,4
1772823605.382571,6444885,-0.04,-0.06,-0.05,-154.50,-78.31,99.56,-1.94,4.75,-3.00,-0.03,-0.01,-0.13,69.19,-77.25,13.38,-1.62,0.81,0.25,9,4
1772823605.411234,6444925,0.01,0.15,-0.11,-155.12,-78.19,99.56,-1.75,3.56,-1.44,-0.08,0.05,-0.11,69.19,-77.25,13.38,1.75,-0.06,0.31,10,3
1772823605.452325,6444966,0.17,0.11,-0.11,-155.50,-78.06,99.56,2.31,1.44,0.62,0.00,-0.07,-0.20,69.12,-77.25,13.50,2.87,-0.25,-0.94,10,3
1772823605.492596,6445006,-0.04,0.00,-0.01,-155.31,-78.06,99.62,4.31,-2.31,2.44,0.02,-0.12,-0.02,69.06,-77.19,13.63,1.50,-1.94,-0.94,11,2
1772823605.532784,6445046,-0.10,-0.13,-0.05,-155.00,-78.12,99.75,1.44,-0.94,0.37,-0.03,-0.10,0.01,68.94,-77.12,13.69,-0.81,0.06,-0.56,11,2
1772823605.573097,6445086,-0.03,-0.04,-0.09,-155.06,-78.12,99.75,-2.69,-0.56,-1.56,0.00,-0.07,-0.03,69.00,-77.12,13.63,-0.50,-0.13,0.50,11,1
1772823605.612959,6445126,-0.04,0.04,-0.10,-155.19,-78.19,99.69,-3.00,-0.50,-1.00,-0.06,-0.03,0.01,69.00,-77.12,13.63,-0.31,-0.19,0.44,11,1
1772823605.653129,6445167,0.00,0.13,-0.11,-155.06,-78.19,99.56,0.13,-0.88,0.56,-0.05,-0.07,-0.01,69.00,-77.12,13.63,0.62,0.13,0.31,10,1
1772823605.693324,6445207,0.02,0.08,-0.14,-154.87,-78.25,99.62,1.94,-1.25,1.69,-0.06,-0.03,-0.09,69.00,-77.12,13.69,2.19,-0.06,-0.13,9,1
1772823605.733592,6445247,0.02,0.06,-0.07,-154.56,-78.25,99.62,2.69,-3.06,1.12,-0.03,-0.07,-0.04,68.94,-77.12,13.75,2.50,0.06,-0.25,8,1
1772823605.773282,6445287,-0.12,0.01,0.02,-154.25,-78.37,99.75,2.56,-3.69,0.13,-0.02,-0.12,0.04,68.87,-77.12,13.81,-0.44,0.25,0.19,8,2
1772823605.812871,6445326,-0.12,-0.12,0.01,-154.19,-78.50,99.87,0.69,-1.87,-1.31,-0.04,-0.06,0.00,69.06,-77.12,13.75,-2.06,0.62,0.44,8,2
1772823605.854189,6445367,-0.03,-0.09,-0.01,-154.31,-78.56,99.94,-1.62,-0.88,-1.50,-0.03,-0.01,-0.13,69.25,-77.12,13.69,-1.19,0.94,0.81,8,2
1772823605.893704,6445408,0.01,0.07,-0.04,-154.31,-78.62,99.87,-1.44,-1.37,0.13,0.00,-0.03,-0.11,69.31,-77.19,13.69,0.50,0.13,0.44,8,2
1772823605.933991,6445448,0.00,0.08,-0.05,-154.06,-78.69,99.87,0.31,-1.69,1.62,-0.06,0.00,-0.16,69.31,-77.19,13.69,1.12,0.75,0.37,7,3
1772823605.973525,6445487,0.01,0.10,-0.05,-153.62,-78.69,99.81,1.62,-2.19,1.37,-0.07,-0.05,-0.07,69.44,-77.19,13.75,1.81,0.06,-0.50,7,4
1772823606.013661,6445527,-0.06,0.00,0.03,-153.25,-78.81,99.87,1.94,-3.50,0.94,0.00,-0.11,-0.07,69.44,-77.19,13.81,0.56,-0.44,-0.62,6,4
1772823606.054541,6445568,-0.15,-0.07,0.02,-152.87,-78.87,99.94,1.00,-2.62,0.31,0.00,-0.13,0.03,69.50,-77.19,13.81,-1.75,0.44,-0.31,6,4
1772823606.095106,6445608,-0.13,-0.10,-0.01,-152.75,-78.94,99.94,-1.62,-0.56,-0.44,-0.02,-0.08,-0.12,69.62,-77.19,13.75,-1.44,0.88,0.69,6,4
1772823606.134878,6445649,0.00,0.03,-0.10,-152.62,-78.94,99.81,-3.19,0.19,0.31,-0.03,-0.01,-0.11,69.81,-77.19,13.69,-0.75,1.31,0.75,5,4
1772823606.174876,6445689,-0.05,0.23,-0.09,-152.37,-78.94,99.69,-1.25,-0.56,1.06,-0.08,-0.04,-0.01,69.87,-77.25,13.69,0.94,0.37,0.62,5,4
1772823606.214802,6445729,0.01,0.05,-0.03,-152.06,-78.94,99.62,1.75,-1.12,1.12,-0.05,-0.02,-0.13,69.81,-77.25,13.69,0.94,0.25,0.00,4,4
1772823606.255314,6445769,0.01,0.05,-0.03,-151.75,-78.94,99.69,2.19,-2.31,1.56,0.00,-0.09,-0.16,69.87,-77.25,13.75,2.19,0.06,-0.31,6,3
1772823606.295422,6445809,-0.04,0.02,0.06,-151.37,-79.00,99.69,1.50,-2.31,1.37,0.00,-0.11,-0.11,69.87,-77.25,13.81,1.44,-0.13,-0.13,6,3
1772823606.335654,6445849,-0.15,-0.02,0.07,-150.94,-79.06,99.75,0.25,-2.87,0.50,-0.01,-0.15,0.00,69.94,-77.25,13.88,-1.00,-0.37,-0.25,6,3
1772823606.375371,6445889,-0.14,-0.04,0.01,-150.69,-79.19,99.75,-1.50,-0.13,-0.19,-0.05,-0.10,0.02,70.00,-77.25,13.81,-1.87,0.37,0.56,6,2
1772823606.415435,6445929,-0.04,0.07,-0.04,-150.75,-79.12,99.62,-2.25,0.94,-1.06,-0.04,0.01,-0.12,70.12,-77.25,13.75,-1.12,0.19,0.56,5,1
1772823606.456045,6445970,0.05,0.16,-0.07,-150.87,-79.12,99.56,-0.31,0.37,0.00,-0.02,-0.01,-0.07,70.12,-77.25,13.75,0.50,-0.69,0.25,6,1
1772823606.496230,6446010,-0.02,0.06,-0.03,-150.87,-79.12,99.56,2.00,-0.25,-0.13,-0.04,-0.01,-0.01,70.12,-77.25,13.75,0.62,-0.50,0.31,7,1
1772823606.536394,6446050,-0.02,0.00,-0.05,-150.94,-79.12,99.69,2.00,-0.50,-0.62,-0.05,0.00,-0.10,70.06,-77.25,13.81,1.19,-0.50,0.31,7,1
1772823606.576581,6446090,-0.06,-0.04,-0.01,-151.06,-79.19,99.81,1.25,-1.62,-1.31,-0.04,-0.04,-0.08,69.94,-77.19,13.81,0.13,-0.94,0.19,8,1
1772823606.617023,6446130,-0.12,-0.07,0.02,-151.19,-79.25,99.94,0.81,-0.44,-1.06,-0.01,-0.05,-0.05,69.81,-77.19,13.81,-0.88,-0.75,-0.19,9,1
1772823606.657388,6446171,-0.09,-0.10,0.02,-151.37,-79.25,99.94,-0.50,0.44,-0.25,-0.01,-0.04,-0.06,69.69,-77.19,13.75,-0.19,-1.06,-0.19,9,1
1772823606.708761,6446211,-0.05,-0.01,-0.01,-151.44,-79.25,99.94,-0.88,1.44,0.50,-0.05,-0.05,-0.09,69.50,-77.19,13.75,1.06,-0.81,-0.25,8,1
1772823606.737083,6446251,-0.03,0.08,-0.05,-151.44,-79.19,99.87,0.00,1.25,1.00,-0.04,-0.04,-0.10,69.31,-77.19,13.81,0.81,-1.19,-0.62,8,1
1772823606.777290,6446291,-0.08,0.03,-0.05,-151.37,-79.12,99.81,0.44,1.25,0.37,-0.05,-0.02,0.01,69.19,-77.12,13.81,-0.75,-0.75,-0.69,9,1
1772823606.816703,6446330,-0.01,-0.07,-0.05,-151.56,-79.06,99.81,-0.19,1.94,-0.88,-0.01,-0.10,0.05,69.12,-77.06,13.81,-1.37,-0.56,-0.31,11,1
1772823606.857905,6446371,0.00,-0.03,-0.11,-151.94,-79.00,99.81,-1.50,1.69,-0.50,-0.06,-0.05,-0.07,69.12,-77.06,13.75,-0.13,0.13,-0.25,12,1
1772823606.897506,6446411,0.00,0.15,-0.10,-151.94,-79.00,99.75,-0.56,0.06,0.62,-0.04,-0.05,-0.08,69.06,-77.06,13.81,0.56,-1.06,0.19,13,2
1772823606.937909,6446451,-0.08,-0.01,-0.01,-151.87,-78.94,99.75,0.75,-0.13,0.69,-0.01,-0.05,-0.05,68.94,-77.06,13.81,-0.25,-0.69,-0.44,13,2
1772823606.978180,6446492,-0.06,-0.01,-0.01,-151.81,-78.94,99.75,-0.31,0.13,0.00,0.02,-0.07,-0.08,68.87,-77.06,13.81,-0.31,-0.31,-0.13,13,2
1772823607.018075,6446532,-0.03,0.00,-0.02,-151.81,-78.94,99.69,-1.56,1.00,-0.19,-0.03,-0.05,-0.08,68.87,-77.06,13.81,0.06,0.31,0.13,14,2
1772823607.058341,6446572,0.00,0.07,-0.03,-151.87,-78.87,99.62,-1.25,0.44,-0.13,-0.04,-0.06,-0.09,68.87,-77.06,13.81,0.31,0.25,0.13,15,2
1772823607.098572,6446612,-0.05,0.07,-0.04,-151.81,-78.87,99.56,-0.13,0.31,0.62,-0.09,-0.05,-0.05,68.87,-77.06,13.81,0.94,-0.06,0.25,16,1
1772823607.138508,6446652,-0.05,0.03,-0.02,-151.81,-78.87,99.56,0.94,0.75,0.19,-0.01,-0.07,-0.06,68.87,-77.06,13.81,0.75,0.06,-0.06,16,1
1772823607.178528,6446692,0.01,0.01,-0.04,-151.87,-78.87,99.62,0.31,0.75,0.37,-0.02,-0.07,-0.09,68.81,-77.06,13.88,1.12,0.44,0.19,16,1
1772823607.218727,6446732,-0.03,0.01,-0.07,-151.87,-78.81,99.62,-0.13,0.31,0.19,-0.05,-0.08,-0.09,68.81,-77.06,13.88,0.88,0.37,0.50,15,1
1772823607.259334,6446773,-0.05,0.06,-0.04,-151.87,-78.81,99.62,-0.44,0.13,0.19,-0.02,-0.06,-0.06,68.81,-77.06,13.94,0.75,0.44,0.62,14,1
1772823607.299371,6446813,-0.09,0.08,-0.01,-151.87,-78.81,99.62,-0.06,0.50,-0.56,-0.06,-0.02,-0.04,68.81,-77.06,13.94,-0.50,0.19,0.44,13,1
1772823607.354218,6446853,-0.05,0.02,-0.07,-152.12,-78.81,99.62,0.37,0.50,-2.06,0.00,-0.07,0.01,68.81,-77.06,13.88,-2.00,0.06,0.00,12,1
1772823607.379386,6446893,-0.04,-0.12,-0.10,-152.69,-78.87,99.75,0.06,1.62,-2.00,-0.08,-0.01,-0.19,68.94,-77.06,13.81,-0.94,0.62,0.31,12,2
1772823607.419003,6446933,0.07,-0.02,-0.10,-152.94,-78.81,99.75,-0.50,0.44,-0.31,-0.07,0.00,-0.24,69.00,-77.12,13.81,1.75,0.00,0.00,11,2
1772823607.459886,6446973,-0.02,0.06,-0.03,-152.75,-78.81,99.75,1.00,-1.44,1.87,-0.01,-0.08,-0.06,69.00,-77.12,13.88,1.81,-0.31,-0.06,10,2
1772823607.499656,6447014,-0.11,0.02,-0.03,-152.25,-78.87,99.75,0.94,-1.00,1.25,-0.07,-0.07,0.01,69.00,-77.12,13.94,0.44,0.37,0.31,10,2
1772823607.540512,6447054,-0.03,-0.04,-0.04,-152.25,-78.87,99.75,-0.94,-0.13,-0.75,-0.03,-0.05,-0.12,69.00,-77.12,13.94,-0.37,0.44,0.06,9,2
1772823607.580332,6447094,-0.11,0.07,-0.05,-152.31,-78.87,99.69,-0.81,0.25,-0.88,-0.08,-0.01,-0.01,69.06,-77.12,13.94,-0.25,0.06,0.50,8,2
1772823607.620708,6447134,-0.02,-0.01,-0.02,-152.50,-78.87,99.75,0.62,0.31,-0.69,-0.05,-0.03,-0.14,69.06,-77.12,13.94,-0.44,-0.06,-0.25,8,2
1772823607.661641,6447174,-0.04,-0.01,0.01,-152.50,-78.87,99.75,0.19,-0.06,0.88,-0.01,-0.02,-0.13,69.12,-77.06,13.94,0.37,-0.75,-0.62,7,2
1772823607.700685,6447214,-0.04,0.00,-0.03,-152.31,-78.87,99.69,-0.69,0.62,0.94,-0.01,-0.05,-0.11,69.12,-77.06,13.94,0.94,-0.13,-0.19,7,2
1772823607.740805,6447254,0.02,0.08,-0.11,-152.19,-78.81,99.62,-1.31,1.00,0.88,-0.02,-0.06,-0.10,69.12,-77.06,14.00,1.37,-0.13,-0.25,7,2
1772823607.780980,6447295,0.04,0.15,-0.12,-152.06,-78.81,99.56,-0.19,0.13,1.00,-0.08,0.01,-0.12,69.12,-77.06,14.06,0.94,-0.06,-0.13,6,2
1772823607.821200,6447335,-0.03,0.06,-0.11,-151.94,-78.81,99.56,1.12,-1.81,-0.25,-0.04,-0.06,0.00,69.12,-77.06,14.06,-0.69,-0.69,-0.50,6,2
1772823607.861643,6447375,-0.15,-0.10,-0.03,-151.94,-78.87,99.62,0.88,-0.31,-1.50,-0.01,-0.08,0.06,69.12,-77.06,14.00,-2.12,-0.19,-0.25,5,2
1772823607.901583,6447415,-0.03,-0.14,-0.11,-152.37,-78.87,99.69,-1.12,1.50,-1.37,-0.04,-0.03,-0.05,69.25,-77.06,13.94,-1.12,0.62,0.44,4,2
1772823607.941426,6447455,0.06,-0.04,-0.11,-152.50,-78.87,99.62,-2.44,0.94,0.00,-0.03,-0.03,-0.21,69.31,-77.06,13.94,0.75,0.37,0.31,5,2
1772823607.981803,6447495,0.04,0.07,-0.13,-152.31,-78.81,99.50,-0.50,-1.37,1.87,-0.03,-0.08,-0.07,69.31,-77.06,13.94,0.69,-0.31,0.13,5,2
1772823608.022025,6447535,-0.02,0.09,-0.10,-151.81,-78.87,99.44,0.62,-1.81,1.69,-0.05,-0.01,-0.08,69.37,-77.06,14.00,-0.06,0.37,-0.06,6,2
1772823608.062338,6447576,-0.03,0.05,-0.06,-151.44,-78.87,99.44,0.25,-2.37,0.37,-0.04,-0.06,-0.09,69.37,-77.06,14.00,0.13,0.13,-0.37,5,3
1772823608.102284,6447616,-0.10,0.00,0.00,-151.12,-79.00,99.44,-0.13,-2.69,-0.06,-0.01,-0.09,-0.12,69.44,-77.06,14.00,-1.25,0.19,-0.37,5,3
1772823608.142596,6447656,-0.11,-0.04,-0.01,-150.94,-79.06,99.44,-0.94,-1.37,0.37,-0.03,-0.09,-0.07,69.56,-77.06,13.94,-1.50,0.25,0.06,6,3
1772823608.182569,6447696,-0.02,0.07,-0.04,-150.87,-79.06,99.37,-2.37,0.31,0.50,-0.04,-0.06,-0.10,69.62,-77.06,13.88,-0.19,-0.13,0.25,8,3
1772823608.222636,6447736,0.01,0.21,-0.08,-150.62,-79.06,99.25,-1.31,0.37,0.81,-0.07,-0.02,-0.16,69.69,-77.06,13.94,0.62,-0.56,-0.19,8,4
1772823608.262884,6447777,-0.01,0.22,-0.10,-150.25,-79.06,99.19,1.44,-1.06,1.00,-0.07,-0.04,-0.10,69.69,-77.06,13.94,1.56,-0.69,0.13,8,4
1772823608.302810,6447817,0.00,-0.02,0.00,-150.19,-79.06,99.25,2.87,-1.81,-0.56,0.00,-0.09,-0.07,69.62,-77.06,14.00,0.00,-0.81,-0.75,9,4
1772823608.343205,6447857,-0.10,-0.07,0.00,-150.00,-79.12,99.37,1.25,-2.12,-0.37,0.00,-0.08,-0.07,69.56,-77.00,14.00,-0.44,-1.12,-0.50,9,4
1772823608.382537,6447896,-0.12,-0.10,0.04,-150.06,-79.19,99.44,-0.81,-0.13,-0.75,-0.02,-0.09,-0.02,69.50,-77.00,14.00,-1.37,-0.44,0.25,9,4
1772823608.423062,6447936,-0.05,-0.01,-0.02,-150.06,-79.19,99.37,-2.81,0.81,-0.06,-0.06,-0.02,-0.08,69.56,-77.00,13.94,-0.13,-0.50,0.31,10,4
1772823608.463684,6447977,-0.04,0.15,-0.10,-150.06,-79.12,99.25,-1.62,1.44,0.37,-0.06,0.00,-0.04,69.50,-77.00,13.94,0.31,-1.19,0.19,10,4
1772823608.503606,6448017,-0.01,0.06,-0.12,-150.19,-79.06,99.19,0.88,0.88,-0.06,-0.03,0.00,-0.04,69.31,-77.00,13.94,0.56,-0.94,-0.44,10,4
1772823608.543628,6448057,-0.01,0.03,-0.13,-150.31,-79.06,99.25,1.81,0.62,0.06,-0.02,-0.06,-0.08,69.06,-76.94,13.94,1.31,-1.31,-0.31,11,4
1772823608.584061,6448097,-0.02,-0.02,-0.08,-150.37,-79.00,99.31,1.50,0.31,-0.37,-0.02,-0.07,-0.07,68.87,-76.94,14.00,0.69,-0.56,0.06,10,3
1772823608.624083,6448138,-0.06,0.02,-0.06,-150.44,-79.00,99.37,0.31,-0.25,-0.69,-0.06,-0.05,-0.06,68.75,-76.94,14.00,0.44,-0.50,0.13,11,3
1772823608.664529,6448178,-0.10,0.00,-0.08,-150.69,-79.06,99.37,-0.06,-0.37,-1.87,-0.04,-0.08,0.01,68.75,-76.94,14.00,-1.37,-0.62,0.06,10,3
1772823608.704490,6448218,0.00,-0.08,-0.06,-151.00,-79.06,99.44,-0.69,0.56,-1.12,-0.03,0.00,-0.15,68.75,-76.94,13.94,-1.12,-0.25,0.56,10,3
1772823608.744728,6448258,0.02,0.04,-0.11,-151.12,-79.06,99.44,-0.44,-0.37,0.06,-0.02,-0.05,-0.14,68.81,-76.94,13.94,1.12,-0.56,-0.13,8,3
1772823608.784059,6448298,-0.11,0.07,0.00,-150.87,-79.06,99.44,1.19,-1.00,1.06,-0.01,-0.07,-0.04,68.62,-76.94,14.00,1.62,-0.69,-0.06,8,4
1772823608.823011,6448337,-0.18,0.03,0.00,-150.81,-79.06,99.50,1.19,1.31,-0.31,-0.05,-0.05,0.03,68.56,-76.94,14.00,1.25,0.06,-0.25,8,4
1772823608.864679,6448378,0.03,-0.03,-0.01,-151.19,-79.00,99.56,-0.13,2.00,-1.75,-0.01,0.00,-0.21,68.50,-76.94,14.06,2.31,0.37,0.19,7,4
1772823608.905122,6448419,-0.22,0.18,-0.05,-151.56,-79.00,99.56,-0.69,1.44,-0.81,-0.05,-0.06,0.00,68.31,-76.94,14.19,7.50,-0.62,0.75,7,4
1772823608.945129,6448459,-0.08,0.06,-0.15,-152.31,-78.87,99.69,2.94,4.62,-2.25,-0.07,-0.15,0.04,68.00,-76.94,14.38,2.44,1.25,0.62,6,4
1772823608.984836,6448498,0.09,-0.10,-0.18,-153.19,-78.75,99.87,3.37,4.31,-1.00,0.00,-0.02,-0.08,68.00,-77.00,14.50,3.19,0.69,0.50,6,4
1772823609.023827,6448538,0.12,-0.14,-0.17,-153.75,-78.62,100.00,1.62,1.87,-2.00,-0.01,-0.01,-0.13,67.94,-77.00,14.56,1.69,0.88,0.56,5,3
1772823609.065359,6448579,0.06,-0.05,-0.12,-154.31,-78.62,100.12,0.06,0.13,-1.81,-0.09,-0.05,-0.12,68.00,-77.06,14.63,2.25,1.00,0.69,5,3
1772823609.105813,6448619,0.01,-0.04,-0.13,-154.56,-78.69,100.19,0.69,-2.06,-0.50,-0.05,-0.14,-0.09,68.12,-77.06,14.69,0.00,1.12,0.13,6,3
1772823609.145970,6448660,-0.07,-0.06,-0.06,-154.31,-78.75,100.25,0.13,-2.56,0.81,-0.07,-0.06,-0.12,68.25,-77.06,14.69,0.13,0.69,0.00,7,3
1772823609.185921,6448700,-0.09,-0.10,0.03,-154.06,-78.81,100.19,-1.56,-2.50,0.75,0.00,-0.09,-0.07,68.37,-77.06,14.69,-0.69,0.62,0.19,6,2
1772823609.226145,6448740,-0.10,0.06,0.02,-153.62,-78.87,100.06,-3.06,-1.19,1.69,-0.01,-0.09,-0.13,68.50,-77.12,14.69,0.81,0.94,0.13,6,2
1772823609.266437,6448780,-0.11,0.27,0.00,-152.87,-78.87,99.81,-1.62,-0.56,2.44,-0.02,-0.07,-0.11,68.50,-77.12,14.75,2.50,0.50,0.19,6,2
1772823609.306262,6448820,-0.05,0.22,-0.04,-152.31,-78.81,99.69,0.88,0.50,1.50,-0.05,-0.07,-0.09,68.44,-77.12,14.81,1.81,0.50,0.56,7,2
1772823609.346668,6448860,-0.01,0.14,-0.10,-152.19,-78.75,99.69,1.44,0.62,-0.37,-0.05,-0.03,-0.08,68.31,-77.12,14.81,1.75,0.31,0.56,6,2
1772823609.386115,6448900,0.00,0.05,-0.10,-152.50,-78.75,99.81,2.25,0.06,-2.31,-0.03,-0.07,-0.02,68.25,-77.12,14.88,1.19,0.37,0.88,5,2
1772823609.425548,6448939,0.01,-0.12,-0.06,-152.94,-78.81,100.00,2.62,-0.75,-2.56,-0.05,-0.10,-0.08,68.25,-77.19,14.88,-0.56,1.06,1.00,5,3
1772823609.466930,6448981,0.00,-0.14,-0.06,-153.44,-78.87,100.19,0.25,-1.44,-2.25,-0.05,0.00,-0.10,68.37,-77.25,14.81,-0.19,1.37,1.69,6,3
1772823609.507283,6449021,-0.03,-0.02,-0.09,-153.87,-79.00,100.31,-1.25,-1.50,-2.25,-0.02,-0.04,-0.16,68.44,-77.31,14.75,1.31,0.94,1.69,6,3
1772823609.547376,6449061,-0.02,0.01,-0.08,-154.00,-79.12,100.37,0.06,-2.50,-1.31,-0.03,0.00,-0.13,68.37,-77.37,14.75,0.81,0.81,1.25,6,3
1772823609.587441,6449101,-0.12,0.03,0.00,-153.94,-79.19,100.44,1.75,-2.69,-1.19,-0.07,0.00,-0.07,68.31,-77.44,14.75,0.94,0.50,0.62,7,2
1772823609.627980,6449141,-0.01,-0.12,0.07,-154.06,-79.31,100.56,2.12,-2.19,-1.12,-0.04,-0.06,-0.23,68.31,-77.44,14.75,0.19,-0.31,-0.19,8,3
1772823609.668100,6449182,-0.10,-0.08,0.05,-153.87,-79.44,100.69,-0.25,-2.69,0.62,0.02,-0.05,-0.24,68.37,-77.44,14.75,1.12,-1.19,0.37,9,3
1772823609.708100,6449222,-0.07,0.08,0.05,-153.50,-79.50,100.62,-1.25,-1.62,0.75,-0.02,-0.04,-0.19,68.25,-77.44,14.75,1.75,-1.00,0.75,8,2
1772823609.748365,6449262,-0.06,0.16,-0.01,-153.25,-79.50,100.50,-0.88,-0.94,0.13,-0.07,-0.09,-0.11,68.12,-77.44,14.81,0.06,-0.81,0.56,9,3
1772823609.809855,6449301,-0.08,0.08,0.03,-153.25,-79.56,100.56,0.06,-0.94,-1.12,-0.04,-0.03,-0.10,68.12,-77.44,14.75,-2.69,-0.81,0.94,9,2
1772823609.832678,6449341,-0.10,-0.06,0.00,-153.44,-79.56,100.62,-0.06,0.00,-2.31,-0.01,-0.03,-0.10,68.12,-77.44,14.63,-3.31,-1.69,0.19,11,2
1772823609.868589,6449382,-0.05,-0.02,0.02,-153.81,-79.62,100.69,-0.62,0.69,-0.56,-0.03,-0.05,-0.10,68.00,-77.44,14.50,-0.25,-2.12,-0.44,12,2
1772823609.908455,6449422,-0.11,0.08,0.03,-153.81,-79.56,100.62,0.25,1.25,0.69,0.00,-0.10,-0.01,67.69,-77.44,14.50,1.06,-2.00,-0.19,13,2
1772823609.948837,6449462,-0.10,0.01,-0.04,-154.00,-79.50,100.62,0.62,2.69,-0.06,-0.08,-0.04,-0.06,67.44,-77.37,14.50,-0.06,-1.25,0.13,13,2
1772823609.988378,6449502,-0.02,0.00,-0.06,-154.44,-79.37,100.62,-0.06,2.81,-1.56,-0.04,-0.05,-0.09,67.19,-77.37,14.50,-0.69,-1.69,-0.19,14,2
1772823610.027912,6449541,0.00,-0.02,-0.09,-154.87,-79.37,100.69,-0.37,2.19,-1.94,-0.05,-0.04,-0.04,67.00,-77.31,14.44,-1.56,-1.87,-0.37,14,2
1772823610.069662,6449583,-0.03,-0.05,-0.09,-155.37,-79.31,100.75,-0.25,1.94,-0.94,-0.04,-0.01,-0.03,66.75,-77.31,14.38,-0.75,-2.19,-0.44,15,2
1772823610.109544,6449623,-0.05,0.00,-0.09,-155.75,-79.25,100.75,0.13,1.69,-0.50,-0.04,-0.02,-0.04,66.37,-77.25,14.38,0.06,-2.31,-0.44,16,2
1772823610.149739,6449663,-0.04,0.02,-0.13,-155.94,-79.12,100.75,0.31,2.00,-0.62,-0.04,-0.04,-0.01,66.00,-77.25,14.38,0.31,-2.25,-0.13,17,2
1772823610.189010,6449703,0.02,-0.03,-0.14,-156.31,-79.06,100.81,0.56,2.00,-1.00,-0.02,-0.05,-0.03,65.69,-77.19,14.38,-0.56,-2.12,-0.37,18,2
1772823610.228638,6449742,0.00,-0.02,-0.15,-156.56,-79.06,100.87,0.06,1.00,-1.00,-0.08,-0.02,-0.02,65.50,-77.19,14.31,-0.88,-1.62,0.19,18,2
1772823610.270399,6449784,0.01,-0.11,-0.08,-156.94,-79.06,100.94,0.31,-0.31,-1.69,-0.03,-0.05,-0.12,65.31,-77.12,14.25,-1.31,-1.62,-0.37,17,2
1772823610.310676,6449824,-0.02,-0.08,-0.03,-157.12,-79.06,100.94,-1.31,-1.06,0.56,-0.02,-0.05,-0.13,65.12,-77.12,14.25,-0.81,-1.94,-0.50,16,2
1772823610.350579,6449864,-0.10,-0.04,-0.03,-156.69,-79.06,100.81,-2.50,-0.37,2.00,0.00,-0.04,-0.04,64.94,-77.06,14.19,-0.19,-1.81,-0.50,16,2
1772823610.389641,6449903,-0.10,0.06,-0.06,-156.25,-79.06,100.56,-2.87,0.69,2.00,-0.03,-0.05,0.00,64.75,-77.06,14.19,-0.06,-1.25,-0.50,16,2
1772823610.430277,6449944,-0.10,0.08,-0.05,-156.00,-79.00,100.44,-2.06,1.19,1.44,-0.03,-0.02,-0.01,64.62,-77.00,14.19,-0.19,-1.12,-0.88,15,1
1772823610.471170,6449985,-0.06,0.09,-0.05,-155.87,-78.94,100.31,-0.25,1.50,1.00,0.02,-0.09,-0.08,64.56,-76.94,14.25,0.31,-1.00,-1.12,15,1
1772823610.511215,6450025,-0.07,0.06,-0.08,-155.81,-78.81,100.25,0.56,2.31,1.06,-0.03,-0.07,-0.08,64.50,-76.87,14.31,0.13,-1.25,-0.88,14,1
1772823610.550924,6450065,0.00,0.00,-0.10,-155.87,-78.75,100.25,0.25,2.00,0.44,-0.01,-0.07,-0.10,64.44,-76.81,14.31,-0.37,-1.06,-0.44,13,1
1772823610.591560,6450105,-0.05,0.07,-0.07,-156.00,-78.69,100.19,-0.75,1.31,-0.44,-0.02,-0.06,-0.07,64.37,-76.81,14.31,-0.81,-0.62,-0.13,12,1
1772823610.631582,6450145,-0.04,0.04,-0.02,-156.12,-78.62,100.19,-0.37,1.19,-0.75,-0.04,-0.07,-0.07,64.44,-76.81,14.31,-0.50,-0.44,-0.19,10,1
1772823610.671932,6450185,-0.05,0.01,-0.02,-156.19,-78.56,100.19,0.25,1.25,-0.44,-0.03,-0.04,-0.04,64.44,-76.81,14.31,-0.19,-0.81,-0.13,8,1
1772823610.711990,6450225,-0.03,-0.06,-0.03,-156.31,-78.56,100.19,0.37,1.31,-0.19,-0.05,-0.05,-0.09,64.37,-76.81,14.31,0.19,-0.25,-0.44,7,1
1772823610.751818,6450265,-0.06,-0.01,-0.06,-156.37,-78.50,100.19,0.13,1.44,0.50,0.00,-0.10,-0.05,64.37,-76.81,14.31,0.25,-0.44,-0.44,6,1
1772823610.791545,6450306,-0.06,0.04,-0.08,-156.37,-78.44,100.12,0.00,2.19,1.12,-0.05,-0.08,0.00,64.37,-76.81,14.31,0.00,0.62,-0.13,5,1
1772823610.831824,6450346,0.03,0.05,-0.11,-156.44,-78.31,100.12,1.31,2.56,1.25,0.00,-0.05,-0.04,64.50,-76.81,14.31,0.19,0.75,-0.06,4,1
1772823610.872195,6450386,-0.05,0.16,-0.09,-156.44,-78.19,100.12,2.56,1.94,1.50,-0.07,0.00,-0.06,64.62,-76.81,14.31,0.88,0.19,0.56,3,2
1772823610.912277,6450426,-0.12,0.05,-0.10,-156.69,-78.12,100.31,3.87,2.62,0.13,0.00,-0.07,-0.12,64.69,-76.81,14.31,0.19,1.31,-0.31,3,2
1772823610.952379,6450466,0.04,-0.04,-0.05,-156.94,-78.06,100.44,2.69,2.44,0.69,-0.06,-0.14,-0.06,64.75,-76.87,14.38,2.06,-0.19,-0.62,3,2
1772823610.992383,6450506,0.03,-0.01,-0.08,-157.12,-78.00,100.50,1.19,1.81,0.37,0.01,-0.10,-0.13,64.75,-76.81,14.44,0.81,0.13,-0.25,3,2
1772823611.032728,6450546,-0.04,0.03,-0.12,-157.19,-77.94,100.50,0.06,1.31,-0.25,-0.04,-0.12,-0.04,64.69,-76.81,14.44,-0.13,0.06,0.69,4,2
1772823611.073106,6450587,0.00,0.06,-0.14,-157.44,-77.87,100.50,-0.88,1.19,-0.94,-0.08,-0.06,-0.10,64.75,-76.87,14.38,-0.75,0.56,0.62,4,2
1772823611.113292,6450627,0.00,0.13,-0.08,-157.62,-77.87,100.56,0.13,-1.00,-0.94,-0.01,-0.08,-0.11,64.69,-76.87,14.38,-0.75,-0.19,0.44,4,2
1772823611.153316,6450667,-0.04,0.06,-0.08,-157.69,-77.94,100.62,1.87,-0.75,-0.56,-0.03,-0.06,-0.08,64.75,-76.87,14.31,-0.44,-0.31,0.50,6,2
1772823611.193596,6450707,-0.04,-0.03,-0.04,-157.81,-78.00,100.75,2.00,-0.94,-1.06,-0.04,-0.04,-0.13,64.69,-76.87,14.31,-0.50,-0.06,0.94,6,2
1772823611.232663,6450746,-0.06,-0.03,-0.06,-158.12,-78.06,100.87,0.69,-1.37,-2.06,-0.04,-0.06,-0.11,64.62,-76.94,14.25,-0.56,0.06,1.69,7,2
1772823611.274055,6450787,-0.11,-0.02,-0.03,-158.31,-78.12,100.94,-0.50,-1.25,-2.37,-0.01,-0.06,-0.02,64.50,-77.00,14.19,-1.75,0.13,1.62,7,2
1772823611.313993,6450827,-0.13,0.00,-0.05,-158.75,-78.19,101.06,-0.88,-0.06,-2.25,-0.06,-0.04,-0.03,64.44,-77.06,14.06,-2.12,-0.19,1.62,7,2
1772823611.354112,6450868,-0.05,0.00,-0.10,-159.06,-78.19,101.12,-0.81,0.50,-2.06,-0.02,-0.02,-0.13,64.44,-77.12,13.94,-1.31,-0.06,1.62,8,2
1772823611.393387,6450907,0.03,0.01,-0.04,-159.44,-78.25,101.19,-0.37,-0.19,-1.62,-0.04,-0.02,-0.17,64.31,-77.19,13.88,0.00,-0.19,1.19,8,2
1772823611.433865,6450948,-0.08,0.10,-0.01,-159.56,-78.25,101.19,1.19,-1.06,-0.88,-0.05,0.00,-0.07,64.25,-77.19,13.81,0.69,-0.44,0.69,9,2
1772823611.474746,6450988,-0.09,0.03,0.02,-159.75,-78.25,101.37,3.56,-0.19,-1.00,-0.05,-0.05,-0.08,64.25,-77.19,13.81,-0.25,-0.44,-0.13,10,3
1772823611.514538,6451028,-0.11,0.00,0.01,-160.19,-78.25,101.62,3.56,1.50,-0.81,-0.07,-0.02,-0.08,64.25,-77.19,13.81,0.62,-0.31,-0.13,10,3
1772823611.554599,6451068,-0.01,-0.04,-0.01,-160.69,-78.25,101.81,2.44,1.81,-1.75,0.00,-0.10,-0.24,64.12,-77.19,13.88,0.81,-0.81,-0.37,9,3
1772823611.594523,6451108,0.03,-0.02,0.00,-160.87,-78.19,101.87,0.56,1.50,0.19,0.02,-0.14,-0.06,64.19,-77.19,13.88,1.56,-1.62,-0.94,9,3
1772823611.634067,6451148,-0.03,0.05,-0.05,-160.81,-78.12,101.81,0.25,2.12,1.19,0.02,-0.08,-0.12,64.06,-77.12,14.00,1.37,-0.56,-0.44,10,3
1772823611.675030,6451189,-0.03,0.07,-0.12,-160.75,-78.00,101.75,0.00,2.31,1.00,-0.03,-0.09,-0.02,64.00,-77.12,14.06,1.62,-0.44,-0.06,10,3
1772823611.715131,6451229,-0.04,0.08,-0.17,-160.81,-77.94,101.75,-0.19,1.44,0.00,-0.05,-0.08,-0.03,64.00,-77.12,14.13,1.75,-0.75,0.56,9,3
1772823611.755307,6451269,-0.07,0.08,-0.19,-161.06,-77.94,101.81,0.25,0.31,-1.62,-0.02,-0.08,-0.03,63.81,-77.06,14.13,0.31,-0.75,0.31,10,3
1772823611.795246,6451309,0.00,0.00,-0.16,-161.44,-77.87,101.87,0.62,1.19,-2.00,-0.04,-0.09,-0.04,63.75,-77.06,14.13,0.81,-0.56,0.06,11,3
1772823611.835550,6451349,0.03,-0.02,-0.15,-161.75,-77.87,101.94,0.44,0.06,-1.81,-0.03,-0.02,-0.11,63.81,-77.06,14.19,0.88,-0.56,0.31,12,3
1772823611.876159,6451390,0.04,0.00,-0.10,-162.00,-77.94,102.00,-0.06,-1.25,-0.94,-0.03,0.02,-0.12,63.75,-77.06,14.19,2.00,-0.50,0.31,13,3
1772823611.916168,6451430,0.01,0.02,-0.04,-161.87,-78.06,102.00,0.00,-3.44,-0.13,-0.04,0.03,-0.17,63.75,-77.06,14.25,2.31,-0.13,-0.19,14,3
1772823611.956064,6451470,-0.01,0.03,-0.03,-161.62,-78.19,102.00,1.00,-3.75,0.75,-0.03,-0.01,-0.10,63.63,-77.06,14.38,2.87,-0.75,-0.56,15,3
1772823611.995467,6451509,-0.06,0.00,-0.01,-161.37,-78.31,102.06,1.75,-3.50,0.62,-0.02,-0.02,-0.10,63.50,-77.06,14.44,1.94,-0.81,-0.88,15,3
1772823612.034708,6451548,-0.11,-0.02,0.03,-161.12,-78.37,102.12,0.50,-3.00,0.88,-0.03,-0.05,-0.04,63.31,-77.00,14.56,0.75,-1.56,-0.75,14,3
1772823612.076324,6451590,-0.21,0.00,0.01,-160.87,-78.50,102.12,-0.94,-1.56,0.37,-0.02,-0.09,0.07,63.13,-76.94,14.56,0.25,-2.06,-0.75,15,4
1772823612.116619,6451630,-0.21,0.00,-0.05,-160.81,-78.50,102.06,-1.62,1.12,-0.37,0.00,-0.09,0.02,62.88,-76.87,14.56,0.13,-1.25,-0.31,14,4
1772823612.156847,6451670,-0.09,0.04,-0.12,-160.94,-78.37,101.94,-2.12,3.44,-0.50,-0.06,-0.01,0.04,62.69,-76.87,14.56,-0.13,-1.19,-0.31,13,4
1772823612.196328,6451710,-0.05,0.07,-0.15,-161.19,-78.31,101.87,-0.62,3.44,-1.25,-0.06,-0.03,0.02,62.50,-76.81,14.56,-0.44,-1.37,-0.69,11,4
1772823612.235468,6451749,0.07,-0.01,-0.13,-161.56,-78.19,101.94,0.69,2.12,0.06,-0.02,-0.04,-0.14,62.38,-76.75,14.56,-0.19,-1.31,-1.19,8,4
1772823612.277125,6451791,0.02,-0.02,-0.12,-161.50,-78.12,101.87,0.19,-0.13,1.87,0.02,-0.11,-0.08,62.31,-76.69,14.63,-0.06,-1.25,-1.31,7,4
1772823612.317390,6451831,0.01,0.00,-0.16,-160.94,-78.12,101.75,-1.44,-0.56,2.37,-0.02,-0.09,-0.04,62.31,-76.62,14.69,0.31,-0.94,-0.56,5,4
1772823612.357846,6451871,-0.07,0.01,-0.18,-160.44,-78.12,101.56,-2.25,-1.50,2.06,-0.05,-0.11,-0.05,62.25,-76.62,14.69,-0.44,-0.31,-0.69,4,3
1772823612.397662,6451911,-0.04,0.07,-0.16,-159.87,-78.12,101.37,-2.31,-1.94,2.19,-0.06,-0.10,0.01,62.31,-76.56,14.69,-0.75,-0.62,-0.56,4,3
1772823612.437939,6451951,-0.02,0.02,-0.12,-159.44,-78.19,101.31,-2.06,-2.19,2.00,-0.03,-0.11,-0.01,62.31,-76.56,14.69,-0.37,-0.13,-0.31,4,3
1772823612.478039,6451992,0.01,0.04,-0.14,-158.75,-78.25,101.06,-2.00,-2.37,1.94,0.01,-0.11,-0.03,62.38,-76.56,14.69,-0.31,0.13,0.06,5,3
1772823612.518168,6452032,0.04,0.05,-0.16,-158.25,-78.31,100.94,-2.12,-2.62,1.44,-0.02,-0.08,-0.03,62.38,-76.56,14.69,-0.13,0.50,0.31,6,3
1772823612.558223,6452072,0.00,0.05,-0.17,-157.69,-78.44,100.81,-1.50,-3.50,1.37,-0.04,-0.08,-0.05,62.44,-76.56,14.69,0.56,0.69,0.37,6,2
1772823612.598129,6452112,0.01,0.04,-0.12,-157.00,-78.56,100.69,-0.81,-4.94,1.62,-0.04,-0.04,-0.09,62.50,-76.56,14.75,0.44,0.50,0.31,6,2
1772823612.638492,6452152,-0.03,0.02,-0.07,-156.37,-78.75,100.69,-0.31,-5.44,0.88,-0.02,-0.08,-0.07,62.50,-76.56,14.75,0.37,0.19,0.00,7,2
1772823612.678752,6452193,-0.06,0.01,-0.02,-155.81,-78.94,100.69,-0.44,-5.12,0.62,0.00,-0.10,-0.05,62.63,-76.56,14.75,0.69,1.31,0.31,8,3
1772823612.718849,6452233,-0.05,-0.02,-0.02,-155.37,-79.12,100.69,-0.31,-4.31,0.56,0.00,-0.08,-0.14,62.81,-76.62,14.75,-0.19,1.31,0.37,9,3
1772823612.758873,6452273,-0.07,-0.01,0.00,-154.87,-79.25,100.69,-0.56,-3.44,1.00,-0.06,-0.07,-0.05,63.00,-76.62,14.75,-0.94,1.37,0.75,9,3
1772823612.798552,6452312,-0.04,0.03,0.00,-154.37,-79.31,100.62,-1.44,-3.06,0.88,-0.01,-0.02,-0.10,63.19,-76.69,14.69,-0.56,1.62,0.62,10,3
1772823612.838708,6452353,-0.13,0.15,-0.04,-154.00,-79.37,100.56,-1.12,-2.06,1.06,-0.09,-0.04,0.00,63.38,-76.75,14.69,0.69,1.25,1.06,10,3
1772823612.879698,6452393,-0.02,0.05,-0.03,-153.75,-79.44,100.50,0.50,-1.50,-0.25,-0.01,-0.03,-0.14,63.56,-76.81,14.69,-0.56,1.50,0.44,11,3
1772823612.919481,6452433,0.00,0.02,0.00,-153.62,-79.50,100.56,1.19,-1.62,0.13,-0.01,-0.04,-0.08,63.69,-76.81,14.69,-0.69,0.75,-0.06,11,3
1772823612.959689,6452473,-0.11,-0.05,0.00,-153.50,-79.56,100.62,0.62,-1.44,-0.50,-0.03,-0.05,-0.05,63.75,-76.81,14.63,-0.88,0.81,0.00,13,3
1772823612.999860,6452514,-0.10,0.03,-0.02,-153.50,-79.56,100.62,-1.00,-0.06,-0.62,-0.03,-0.06,-0.01,63.88,-76.81,14.63,0.19,0.37,0.44,13,3
1772823613.039937,6452554,-0.07,0.08,-0.06,-153.56,-79.56,100.56,-0.25,1.06,-0.31,-0.05,-0.07,-0.04,63.94,-76.81,14.69,0.69,0.81,0.13,14,3
1772823613.080218,6452594,-0.02,0.03,-0.09,-153.69,-79.50,100.62,1.25,0.69,-0.06,-0.03,-0.06,-0.10,64.00,-76.87,14.69,0.00,0.50,0.19,14,2
1772823613.120324,6452634,0.00,-0.02,-0.05,-153.75,-79.50,100.62,0.56,0.37,-0.06,-0.01,-0.05,-0.14,64.00,-76.87,14.69,0.44,0.50,0.06,14,2
1772823613.160303,6452674,-0.10,0.01,-0.04,-153.75,-79.50,100.62,0.13,0.69,-0.31,-0.03,-0.05,-0.05,64.00,-76.87,14.69,0.25,0.06,0.06,14,2
1772823613.200388,6452714,-0.11,0.06,-0.01,-154.06,-79.44,100.69,0.19,2.12,-1.00,-0.04,-0.08,-0.13,64.00,-76.87,14.69,0.37,0.19,0.19,15,2
1772823613.240411,6452754,-0.13,0.10,0.00,-154.50,-79.37,100.69,0.06,2.69,-1.25,-0.05,-0.03,-0.13,64.00,-76.87,14.69,1.12,0.00,-0.06,15,3
1772823613.280847,6452795,-0.07,0.12,0.05,-155.00,-79.31,100.75,0.56,4.00,-1.06,0.00,-0.05,-0.14,63.88,-76.87,14.81,4.06,0.19,0.31,15,3
1772823613.320701,6452835,-0.11,0.09,-0.01,-155.75,-79.19,100.81,1.44,4.75,-1.81,-0.06,-0.16,0.01,63.75,-76.87,14.94,3.69,0.69,0.31,15,3
1772823613.360932,6452875,-0.19,0.05,-0.09,-156.69,-79.00,100.94,1.25,7.12,-2.75,0.02,-0.05,-0.10,63.63,-76.87,15.06,2.44,0.56,1.12,14,3
1772823613.401025,6452915,-0.03,0.00,-0.21,-157.69,-78.81,101.06,1.06,8.94,-4.25,-0.07,-0.04,-0.03,63.56,-76.87,15.06,0.69,0.81,0.62,14,3
1772823613.441164,6452955,0.18,0.00,-0.25,-159.19,-78.50,101.31,2.00,7.56,-4.19,-0.03,-0.06,-0.21,63.50,-76.94,15.06,1.00,0.25,0.69,14,3
1772823613.482072,6452996,0.17,-0.01,-0.22,-160.50,-78.25,101.56,2.19,3.12,-1.75,-0.01,-0.04,-0.10,63.50,-76.94,15.06,2.25,-0.31,-0.25,13,3
1772823613.521524,6453035,0.00,0.02,-0.21,-160.87,-78.19,101.69,3.25,1.19,-0.50,-0.11,-0.11,-0.04,63.44,-76.94,15.19,1.37,0.13,0.81,14,4
1772823613.562160,6453076,0.00,-0.10,-0.12,-161.25,-78.19,101.87,2.62,-0.81,-1.12,-0.05,-0.07,-0.18,63.44,-76.94,15.19,-1.12,-0.19,0.31,13,4
1772823613.602304,6453116,-0.02,-0.04,-0.04,-161.37,-78.19,101.94,-0.81,-1.00,-0.88,0.02,-0.09,-0.12,63.56,-76.94,15.13,-1.25,-0.06,0.37,12,2
1772823613.641940,6453156,0.00,0.00,-0.02,-161.31,-78.25,101.87,-2.37,-0.94,-0.25,0.00,-0.04,-0.12,63.63,-77.00,15.13,-0.31,0.37,0.81,11,2
1772823613.682501,6453196,-0.03,0.11,-0.07,-161.06,-78.31,101.75,-1.87,-0.94,0.88,-0.09,0.01,-0.05,63.75,-77.00,15.06,0.31,0.69,1.00,10,2
1772823613.722397,6453236,-0.05,0.09,-0.07,-160.94,-78.31,101.69,0.31,-0.94,0.25,-0.05,-0.01,-0.23,63.88,-77.06,15.06,0.31,0.50,0.56,9,2
1772823613.762643,6453276,-0.06,0.01,0.01,-160.87,-78.37,101.75,0.31,-2.12,-0.62,-0.05,-0.06,-0.12,63.94,-77.06,15.06,-2.19,-0.37,0.44,8,2
1772823613.801847,6453316,-0.10,0.02,0.08,-160.75,-78.44,101.69,-1.56,-0.31,-0.37,0.02,-0.06,-0.04,63.94,-77.06,14.94,-1.94,-0.88,0.62,8,2
1772823613.841170,6453355,-0.15,0.09,-0.04,-160.81,-78.44,101.69,-1.75,1.62,-1.69,0.00,-0.06,0.00,63.88,-77.06,14.88,-2.50,-0.62,0.56,7,2
1772823613.882985,6453397,0.03,0.05,-0.09,-161.25,-78.37,101.69,-0.75,2.06,-1.75,-0.02,-0.03,-0.15,63.94,-77.06,14.81,-1.37,-0.44,1.44,7,2
1772823613.923221,6453437,-0.06,0.05,-0.09,-161.56,-78.31,101.69,0.13,-0.19,-1.50,-0.05,0.02,-0.12,63.81,-77.12,14.69,-0.75,-1.37,1.12,5,2
1772823613.963302,6453477,-0.10,0.07,-0.09,-161.94,-78.31,101.81,0.81,0.62,-2.25,-0.03,0.00,-0.07,63.56,-77.12,14.63,-0.19,-2.12,0.44,6,2
1772823614.002398,6453516,-0.04,0.03,-0.05,-162.50,-78.31,101.94,2.25,0.94,-2.31,-0.02,-0.01,-0.04,63.31,-77.06,14.63,0.31,-1.25,0.44,6,2
1772823614.041491,6453555,-0.07,-0.03,-0.03,-162.81,-78.31,102.12,2.25,1.12,-1.50,-0.04,-0.04,-0.09,63.06,-77.06,14.56,0.25,-1.87,0.13,7,2
1772823614.083598,6453597,-0.04,-0.05,-0.07,-163.19,-78.31,102.19,0.44,1.12,-0.81,-0.06,-0.04,-0.05,62.88,-77.00,14.56,-0.25,-1.50,0.13,6,2
1772823614.123643,6453637,-0.04,0.02,-0.10,-163.37,-78.25,102.25,-1.00,1.00,-0.62,-0.05,0.00,0.00,62.63,-77.00,14.56,0.00,-1.25,-0.06,6,3
1772823614.164124,6453678,0.05,0.01,-0.15,-163.50,-78.19,102.19,-0.50,1.19,-0.13,-0.03,0.00,-0.09,62.50,-77.00,14.56,-0.25,-0.81,0.31,7,3
1772823614.204085,6453718,-0.08,0.07,-0.15,-163.44,-78.19,102.19,0.13,0.37,0.62,-0.11,0.01,-0.02,62.38,-76.94,14.56,0.00,-0.44,0.75,6,3
1772823614.244467,6453758,-0.02,0.02,-0.07,-163.44,-78.19,102.19,0.88,-0.31,-0.62,-0.03,0.01,-0.15,62.31,-77.00,14.50,-0.06,-0.62,0.13,5,3
1772823614.284402,6453798,0.00,0.02,-0.07,-163.44,-78.19,102.25,0.13,-1.19,0.00,-0.02,0.00,-0.09,62.13,-76.94,14.50,0.25,-1.31,-0.25,4,3
1772823614.324563,6453838,-0.07,0.02,-0.02,-163.37,-78.25,102.25,-0.25,-1.25,0.06,0.00,0.00,-0.07,61.94,-76.94,14.50,0.25,-0.88,-0.13,6,3
1772823614.364943,6453878,-0.06,0.04,-0.06,-163.37,-78.25,102.25,-0.50,-0.44,0.13,-0.03,-0.01,-0.14,61.88,-76.94,14.50,-0.13,-0.94,0.13,6,3
1772823614.404867,6453919,-0.10,0.06,-0.05,-163.31,-78.25,102.25,-0.50,-0.50,0.13,-0.07,0.00,0.00,61.81,-76.94,14.50,0.13,-0.88,-0.13,6,3
1772823614.445289,6453959,-0.09,0.07,-0.02,-163.31,-78.25,102.19,0.00,-0.31,-0.19,-0.02,-0.01,-0.11,61.69,-76.87,14.50,0.44,-0.75,-0.31,4,3
1772823614.485504,6453999,-0.05,0.05,-0.01,-163.31,-78.25,102.25,0.75,0.50,0.25,-0.01,-0.03,-0.07,61.56,-76.87,14.50,0.56,-0.69,-0.50,4,3
1772823614.525323,6454039,-0.05,0.04,-0.03,-163.37,-78.25,102.25,0.19,1.56,0.19,-0.04,-0.03,-0.07,61.50,-76.87,14.50,0.19,-0.31,-0.25,5,3
1772823614.565587,6454079,-0.02,0.05,-0.09,-163.44,-78.19,102.19,-0.69,1.62,-0.37,-0.02,-0.03,-0.07,61.50,-76.87,14.50,0.19,-0.44,-0.06,6,3
1772823614.605617,6454119,-0.03,0.06,-0.09,-163.50,-78.12,102.19,-0.56,0.88,-0.37,-0.03,-0.03,-0.08,61.44,-76.87,14.50,0.00,-0.44,-0.31,7,3
1772823614.645687,6454159,-0.01,0.06,-0.08,-163.56,-78.12,102.19,0.06,0.56,0.13,-0.03,-0.02,-0.06,61.44,-76.87,14.50,0.06,-0.31,-0.06,7,3
1772823614.686153,6454200,-0.03,0.04,-0.06,-163.56,-78.12,102.19,0.50,0.00,0.31,-0.03,-0.03,-0.06,61.44,-76.87,14.50,0.37,-0.25,-0.31,8,3
1772823614.725973,6454240,-0.05,0.03,-0.07,-163.56,-78.12,102.19,0.00,0.13,0.00,-0.02,-0.06,-0.06,61.44,-76.87,14.50,0.56,0.25,-0.06,8,3
1772823614.766167,6454280,-0.06,0.04,-0.11,-163.56,-78.12,102.19,-0.50,0.19,0.19,-0.01,-0.07,-0.07,61.44,-76.87,14.50,0.19,0.25,-0.06,8,3
1772823614.806222,6454320,-0.03,0.05,-0.11,-163.50,-78.12,102.19,-0.44,0.31,0.62,-0.07,-0.07,0.00,61.50,-76.87,14.50,0.13,0.62,0.31,9,3
1772823614.846211,6454360,-0.01,0.05,-0.13,-163.50,-78.12,102.19,-0.75,-0.37,0.37,-0.01,-0.03,-0.12,61.50,-76.87,14.50,0.06,0.50,0.19,10,3
1772823614.886678,6454401,-0.02,0.08,-0.13,-163.50,-78.12,102.12,-0.31,0.00,0.37,-0.09,-0.04,0.00,61.63,-76.87,14.50,0.69,0.69,0.69,10,3
1772823614.927206,6454441,-0.01,0.03,-0.07,-163.44,-78.12,102.12,0.50,-0.75,-0.50,-0.03,-0.05,-0.13,61.69,-76.94,14.50,-0.06,0.62,-0.19,10,3
1772823614.966766,6454481,-0.02,0.05,-0.04,-163.37,-78.12,102.12,-0.13,-1.75,0.62,0.00,-0.04,-0.13,61.75,-76.94,14.50,0.31,0.13,-0.06,9,3
1772823615.006593,6454521,-0.07,0.05,-0.02,-163.19,-78.19,102.12,-0.19,-1.31,0.69,0.00,-0.05,-0.11,61.75,-76.94,14.50,0.06,0.19,0.37,9,3
1772823615.047146,6454561,-0.06,0.07,-0.05,-163.00,-78.25,102.06,-1.06,-0.56,0.62,0.00,-0.03,-0.08,61.75,-76.94,14.50,0.44,0.31,0.37,9,3
1772823615.087582,6454601,-0.05,0.07,-0.09,-162.94,-78.25,102.06,-0.56,-1.00,0.44,-0.03,0.00,-0.09,61.81,-76.94,14.50,0.19,0.31,0.37,9,3
1772823615.127338,6454641,-0.07,0.07,-0.08,-162.87,-78.31,102.06,0.13,-1.12,0.13,0.00,-0.05,-0.10,61.81,-76.94,14.50,0.13,0.19,0.13,8,4
1772823615.167448,6454681,-0.04,0.06,-0.09,-162.75,-78.37,102.06,0.19,-2.00,0.62,0.00,-0.03,-0.08,61.81,-76.94,14.50,0.88,0.13,0.06,7,4
1772823615.207539,6454721,-0.06,0.06,-0.06,-162.69,-78.44,102.06,0.00,-1.12,0.06,-0.03,-0.04,-0.04,61.81,-76.94,14.56,0.25,0.69,0.31,6,4
1772823615.247947,6454762,-0.04,0.06,-0.08,-162.62,-78.50,102.06,0.06,-0.62,-0.37,-0.03,-0.01,-0.11,61.94,-76.94,14.56,0.06,0.88,0.19,5,4
1772823615.288325,6454802,-0.01,0.05,-0.07,-162.56,-78.50,102.06,0.44,-1.12,-0.19,-0.03,-0.02,-0.11,62.00,-76.94,14.56,0.31,0.37,0.00,5,3
1772823615.328318,6454842,-0.03,0.02,-0.08,-162.50,-78.56,102.06,0.81,-1.62,0.44,-0.04,-0.04,-0.09,62.00,-76.94,14.56,0.19,0.06,-0.19,4,3
1772823615.368246,6454882,-0.04,0.00,-0.08,-162.25,-78.62,102.06,0.44,-1.94,1.00,-0.03,-0.05,-0.10,62.00,-76.94,14.56,0.00,0.37,-0.44,5,3
1772823615.408541,6454922,-0.04,0.01,-0.08,-161.87,-78.69,102.06,-0.31,-2.25,1.56,-0.02,-0.05,-0.11,62.06,-76.94,14.56,0.06,0.56,-0.37,5,3
1772823615.448678,6454962,-0.05,0.03,-0.06,-161.50,-78.75,102.00,-1.00,-2.00,1.75,-0.05,-0.05,-0.08,62.06,-76.94,14.56,-0.69,0.31,-0.31,5,3
1772823615.489087,6455003,-0.09,0.06,-0.06,-160.94,-78.81,101.81,-1.75,-1.44,1.44,-0.07,-0.05,0.00,62.06,-76.94,14.50,-0.44,0.25,0.00,5,3
1772823615.529186,6455043,-0.03,0.05,-0.09,-160.56,-78.81,101.69,-1.06,0.06,1.44,-0.02,0.00,-0.16,62.13,-77.00,14.50,-0.25,0.94,-0.50,5,3
1772823615.569052,6455083,-0.02,0.21,-0.16,-160.19,-78.75,101.62,0.37,-0.94,1.75,-0.10,-0.05,-0.07,62.31,-77.00,14.56,1.69,0.75,0.31,5,3
1772823615.608972,6455123,-0.02,0.04,-0.06,-160.00,-78.81,101.62,2.00,-1.75,0.06,0.00,-0.05,-0.18,62.31,-77.00,14.56,0.06,0.31,-0.56,4,3
1772823615.649243,6455163,-0.05,0.00,0.00,-159.87,-78.87,101.75,1.12,-2.25,0.44,-0.01,-0.16,-0.07,62.25,-77.00,14.56,-0.31,-0.25,-0.31,4,3
1772823615.689790,6455204,-0.11,0.02,-0.03,-159.81,-78.94,101.75,-0.88,0.19,0.13,0.01,-0.06,-0.14,62.31,-77.00,14.56,-0.81,0.81,0.13,6,2
1772823615.729719,6455244,-0.02,0.13,-0.09,-159.87,-78.87,101.69,-1.00,1.00,0.25,-0.05,-0.03,-0.14,62.44,-77.00,14.56,0.62,0.94,0.81,6,2
1772823615.769607,6455284,0.00,0.17,-0.11,-159.81,-78.87,101.62,0.75,0.44,0.19,-0.05,-0.07,-0.08,62.63,-77.06,14.56,1.12,0.44,0.31,5,3
1772823615.809791,6455324,-0.02,0.10,-0.05,-159.87,-78.81,101.75,3.19,-0.25,-0.75,0.00,-0.08,-0.16,62.63,-77.06,14.56,-0.06,0.31,0.31,4,2
1772823615.849972,6455364,-0.07,0.00,-0.01,-160.06,-78.87,101.87,2.31,-0.69,-1.06,0.00,-0.09,-0.14,62.69,-77.06,14.56,-0.19,-0.37,0.94,6,2
1772823615.890405,6455404,-0.07,0.00,-0.01,-160.37,-78.87,102.00,0.19,0.00,-1.37,-0.01,-0.05,-0.15,62.69,-77.06,14.56,-0.06,0.37,1.19,6,2
1772823615.930610,6455444,-0.09,0.02,-0.04,-160.75,-78.94,102.06,-1.31,0.50,-2.25,-0.04,-0.03,-0.11,62.69,-77.12,14.50,-0.81,0.62,1.69,5,2
1772823615.970629,6455484,-0.06,0.04,-0.07,-161.25,-78.94,102.06,-0.94,1.25,-2.50,-0.04,-0.03,-0.08,62.69,-77.19,14.44,-0.81,0.19,1.69,6,2
1772823616.010346,6455524,-0.01,0.04,-0.09,-161.69,-78.87,102.12,0.06,1.25,-2.06,-0.04,0.01,-0.13,62.63,-77.25,14.31,-1.19,0.19,1.19,7,1
1772823616.050659,6455564,0.00,0.02,-0.07,-162.00,-78.87,102.19,0.50,-0.25,-1.12,-0.04,0.00,-0.11,62.69,-77.31,14.25,0.31,-0.50,0.56,8,1
1772823616.091344,6455605,-0.09,0.05,-0.05,-162.19,-78.87,102.31,1.56,0.25,-0.94,-0.04,-0.04,-0.08,62.69,-77.31,14.25,0.88,-0.50,0.00,9,3
1772823616.131357,6455645,-0.01,0.01,-0.05,-162.31,-78.87,102.37,1.62,0.56,0.13,-0.01,-0.07,-0.19,62.69,-77.31,14.31,1.50,-0.37,-0.19,11,3
1772823616.171277,6455685,-0.05,0.00,-0.07,-162.25,-78.87,102.44,0.62,0.19,1.19,-0.03,-0.09,-0.13,62.69,-77.31,14.38,1.25,-0.31,-0.31,12,2
1772823616.211430,6455725,-0.08,0.05,-0.06,-162.06,-78.81,102.31,-1.12,0.00,0.69,-0.04,-0.13,-0.08,62.75,-77.31,14.44,-0.19,-0.37,0.00,13,2
1772823616.250353,6455764,-0.07,0.06,-0.08,-162.06,-78.81,102.31,-2.19,0.88,0.06,0.00,-0.04,-0.09,62.81,-77.31,14.44,-1.31,0.44,0.19,12,2
1772823616.291802,6455806,-0.07,0.14,-0.08,-162.00,-78.75,102.19,-1.44,0.62,-0.81,-0.07,-0.02,-0.09,62.88,-77.31,14.38,-1.12,0.00,0.31,12,2
1772823616.331681,6455846,0.02,0.06,-0.09,-162.06,-78.75,102.19,0.19,0.25,0.00,-0.01,-0.03,-0.25,63.00,-77.31,14.31,0.44,-0.50,-0.56,13,2
1772823616.371978,6455886,-0.01,0.06,-0.07,-161.87,-78.75,102.12,1.25,-1.25,1.62,0.00,-0.06,-0.21,63.00,-77.31,14.38,1.12,-1.06,-0.56,13,2
1772823616.411810,6455926,-0.07,0.03,0.01,-161.62,-78.81,102.12,0.88,-1.00,1.25,0.00,-0.08,-0.04,62.88,-77.31,14.38,0.69,-1.12,-0.31,15,2
1772823616.452594,6455966,-0.11,0.06,-0.02,-161.50,-78.81,102.12,-0.94,-0.25,-0.25,-0.04,-0.08,-0.06,62.75,-77.25,14.38,-0.31,-0.75,-0.31,15,2
1772823616.492865,6456007,-0.06,0.08,-0.06,-161.56,-78.81,102.06,-1.00,1.06,-0.75,-0.03,-0.04,-0.06,62.69,-77.25,14.38,-0.50,-1.06,0.19,14,1
1772823616.532894,6456047,-0.06,0.05,-0.08,-161.75,-78.75,102.12,0.31,1.31,-0.75,-0.01,-0.02,-0.09,62.56,-77.25,14.38,-0.19,-0.88,-0.13,14,1
1772823616.572548,6456087,-0.01,0.05,-0.12,-161.81,-78.69,102.12,0.44,1.44,0.00,0.00,-0.03,-0.12,62.44,-77.19,14.38,0.81,-0.94,0.19,14,1
1772823616.612891,6456127,0.00,0.06,-0.14,-162.00,-78.62,102.12,0.31,0.88,-0.69,-0.06,-0.03,-0.08,62.31,-77.19,14.38,0.50,-1.12,0.25,14,1
1772823616.652889,6456167,0.00,0.05,-0.10,-162.19,-78.62,102.12,0.50,0.13,-1.25,-0.04,-0.03,-0.08,62.25,-77.19,14.38,0.13,-0.56,0.19,15,1
1772823616.693596,6456207,-0.04,0.03,-0.09,-162.44,-78.69,102.25,0.81,-0.50,-1.06,-0.03,-0.06,-0.05,62.19,-77.19,14.38,0.19,-0.94,0.19,15,1
1772823616.733472,6456247,-0.04,0.01,-0.08,-162.62,-78.69,102.31,0.69,-0.56,-0.69,0.00,-0.04,-0.13,62.06,-77.19,14.38,0.06,-0.62,0.13,14,1
1772823616.773553,6456287,-0.05,0.03,-0.05,-162.56,-78.69,102.31,-0.06,-0.69,0.00,-0.05,-0.06,-0.10,62.06,-77.12,14.38,0.50,-0.88,0.06,14,1
1772823616.813612,6456327,-0.09,0.05,-0.03,-162.56,-78.75,102.31,-0.13,-0.75,0.25,-0.03,-0.03,-0.11,61.94,-77.12,14.38,0.62,-0.50,0.00,14,1
1772823616.853656,6456367,-0.04,0.06,-0.05,-162.56,-78.75,102.31,0.00,-0.44,0.50,-0.01,-0.06,-0.08,62.00,-77.12,14.44,0.44,-0.50,-0.19,13,1
1772823616.894425,6456408,-0.11,0.07,-0.02,-162.56,-78.75,102.31,-0.13,0.25,0.19,-0.04,-0.02,-0.05,62.00,-77.12,14.44,0.25,-0.13,-0.13,12,1
1772823616.934428,6456448,-0.03,0.05,-0.02,-162.56,-78.69,102.31,-0.13,0.62,-0.19,0.00,-0.01,-0.06,62.06,-77.12,14.44,-0.19,-0.31,-0.13,12,1
1772823616.974087,6456488,-0.06,0.08,-0.08,-162.62,-78.69,102.31,-0.13,0.94,0.00,-0.10,-0.02,-0.03,62.06,-77.12,14.44,0.50,0.06,0.44,10,2
1772823617.014332,6456528,0.00,0.01,-0.08,-162.81,-78.69,102.31,1.00,0.62,-0.94,-0.02,-0.07,-0.15,62.06,-77.12,14.44,0.19,-0.37,-0.44,9,2
1772823617.054356,6456568,-0.01,0.02,-0.03,-162.87,-78.69,102.37,0.31,-0.25,0.50,0.01,-0.07,-0.10,62.13,-77.12,14.44,0.19,-0.13,-0.19,8,2
1772823617.094808,6456609,-0.06,0.03,-0.01,-162.69,-78.69,102.31,-0.69,0.37,0.75,-0.01,-0.08,-0.05,62.19,-77.12,14.44,0.31,0.37,0.06,8,2
1772823617.134874,6456649,-0.07,0.09,-0.08,-162.50,-78.62,102.25,-1.62,0.44,0.88,-0.04,-0.04,-0.03,62.25,-77.12,14.44,0.13,0.44,0.25,8,2
1772823617.174763,6456689,-0.09,0.08,-0.14,-162.37,-78.62,102.12,-1.12,0.37,0.56,-0.08,-0.04,-0.04,62.25,-77.12,14.44,0.13,0.13,0.06,7,2
1772823617.214706,6456729,-0.03,0.09,-0.09,-162.31,-78.62,102.12,0.00,0.19,0.37,0.00,-0.03,-0.09,62.25,-77.12,14.44,0.13,0.06,-0.19,5,2
1772823617.255114,6456769,-0.02,0.04,-0.07,-162.31,-78.62,102.12,0.62,0.37,0.00,-0.01,-0.05,-0.05,62.25,-77.12,14.44,0.62,0.13,-0.25,5,2
1772823617.295329,6456809,-0.01,0.03,-0.07,-162.31,-78.62,102.12,0.19,0.19,0.06,-0.02,-0.04,-0.07,62.31,-77.12,14.44,0.06,0.37,0.06,5,2
1772823617.335695,6456849,0.00,0.04,-0.11,-162.31,-78.62,102.12,-0.31,-0.19,0.25,-0.07,-0.03,-0.08,62.31,-77.12,14.50,-0.19,0.25,0.37,4,1
1772823617.375551,6456890,0.02,0.06,-0.09,-162.31,-78.62,102.12,-0.31,-1.06,0.19,-0.04,-0.02,-0.11,62.38,-77.12,14.50,0.00,0.19,0.13,5,1
1772823617.415965,6456930,-0.04,0.07,-0.10,-162.06,-78.75,102.12,-0.25,-2.44,0.81,-0.05,-0.03,-0.09,62.38,-77.12,14.50,-0.31,-0.06,0.13,5,1
1772823617.455670,6456970,-0.06,0.06,-0.05,-161.87,-78.81,102.12,0.19,-2.50,0.75,-0.03,-0.05,-0.08,62.38,-77.12,14.50,0.06,0.00,-0.13,5,2
1772823617.496344,6457010,-0.07,0.04,-0.05,-161.50,-78.87,102.06,0.31,-2.06,0.88,-0.01,-0.06,-0.09,62.38,-77.12,14.50,0.56,-0.19,0.00,6,2
1772823617.536438,6457050,-0.03,0.05,-0.05,-161.25,-78.94,102.06,-0.13,-1.56,0.94,-0.04,-0.06,-0.09,62.38,-77.12,14.50,0.25,0.13,-0.31,6,2
1772823617.576493,6457090,-0.07,0.06,-0.07,-160.94,-79.00,102.00,-0.69,-1.12,0.88,-0.04,-0.04,-0.07,62.38,-77.12,14.50,-0.44,-0.19,0.00,6,3
1772823617.616347,6457130,0.00,0.07,-0.05,-160.81,-79.00,102.00,-0.31,-0.88,0.44,0.02,-0.04,-0.10,62.38,-77.12,14.50,0.06,0.00,-0.06,6,3
1772823617.656672,6457170,-0.03,0.11,-0.08,-160.62,-79.06,101.94,-0.13,-1.19,0.69,-0.07,-0.03,-0.05,62.38,-77.12,14.50,0.25,-0.06,0.62,6,3
1772823617.697183,6457211,-0.05,0.05,-0.06,-160.62,-79.06,102.00,0.75,-1.50,-0.69,-0.04,-0.04,-0.20,62.31,-77.12,14.44,-0.81,0.13,0.00,6,3
1772823617.737098,6457251,0.00,0.03,-0.06,-160.50,-79.12,102.00,0.50,-1.62,0.62,-0.03,-0.07,-0.12,62.31,-77.12,14.44,0.44,-0.81,-0.31,7,4
1772823617.777204,6457291,-0.10,0.03,-0.03,-160.25,-79.19,102.00,0.37,-1.00,0.69,-0.01,-0.07,-0.09,62.25,-77.12,14.44,-0.06,-0.37,-0.06,8,4
1772823617.817174,6457331,-0.08,0.06,-0.06,-160.25,-79.19,102.00,-0.50,-0.19,0.37,-0.01,-0.06,-0.11,62.19,-77.12,14.44,0.13,-0.56,0.13,8,4
1772823617.857375,6457371,-0.08,0.06,-0.05,-160.25,-79.19,102.00,-0.37,0.13,-0.31,-0.06,-0.03,-0.05,62.19,-77.12,14.44,-0.31,-0.19,0.13,9,4
1772823617.898167,6457412,-0.04,0.07,-0.07,-160.25,-79.19,102.00,0.50,-0.06,-0.50,-0.08,-0.03,-0.09,62.19,-77.12,14.44,0.13,-0.31,-0.13,9,4
1772823617.937593,6457452,-0.07,0.03,-0.07,-160.25,-79.19,102.00,0.94,0.19,-0.44,-0.03,-0.07,-0.08,62.19,-77.12,14.44,0.75,0.06,0.06,10,4
1772823617.977783,6457492,0.00,0.02,-0.13,-160.31,-79.19,102.06,0.62,0.37,-0.50,-0.01,-0.07,-0.15,62.19,-77.12,14.50,-0.31,0.37,0.00,11,4
1772823618.018083,6457532,0.00,-0.01,-0.07,-160.31,-79.19,102.06,-0.88,-0.31,-0.19,-0.04,-0.07,-0.18,62.19,-77.12,14.44,-0.75,0.31,0.13,12,3
1772823618.057413,6457571,-0.04,0.04,-0.07,-160.25,-79.19,102.00,-1.69,-0.69,0.00,-0.04,-0.07,-0.18,62.25,-77.12,14.44,-1.62,-0.19,0.37,12,3
1772823618.098259,6457612,-0.09,0.13,-0.05,-160.12,-79.19,101.94,-1.00,-0.69,0.06,-0.04,0.02,-0.04,62.19,-77.12,14.38,0.56,-0.81,0.44,12,3
1772823618.138336,6457652,-0.10,0.16,-0.11,-160.25,-79.19,101.94,2.00,1.25,-0.62,-0.05,-0.06,-0.03,62.06,-77.12,14.38,1.50,-0.50,-0.06,12,3
1772823618.178347,6457692,-0.01,0.03,-0.10,-160.62,-79.12,102.12,3.50,1.69,-0.81,-0.03,-0.10,-0.15,62.00,-77.12,14.44,1.25,0.00,-0.25,12,3
1772823618.218883,6457733,0.02,-0.10,-0.08,-160.94,-79.12,102.31,1.62,0.88,-0.62,-0.02,-0.09,-0.20,62.00,-77.12,14.44,-0.69,-0.44,-0.19,12,3
1772823618.257894,6457772,0.00,-0.03,-0.06,-160.87,-79.12,102.25,-2.00,-0.19,0.13,0.00,-0.08,-0.20,62.19,-77.12,14.44,-1.81,-0.62,0.13,11,3
1772823618.299125,6457813,-0.04,0.12,-0.04,-160.75,-79.12,102.12,-3.19,-0.69,0.75,-0.04,-0.06,-0.05,62.25,-77.12,14.38,-0.94,-0.50,0.37,10,3
1772823618.339094,6457853,-0.07,0.16,-0.08,-160.37,-79.12,101.94,-1.31,-0.13,1.12,-0.04,0.00,-0.18,62.25,-77.12,14.38,-0.56,-0.31,0.19,10,3
1772823618.379116,6457893,-0.12,0.18,-0.11,-160.25,-79.12,101.94,0.94,0.44,0.31,-0.10,-0.01,-0.02,62.25,-77.12,14.38,0.19,-0.13,0.62,10,3
1772823618.419460,6457933,-0.03,0.02,-0.04,-160.50,-79.12,102.06,1.75,0.44,-1.56,-0.02,-0.03,-0.14,62.19,-77.12,14.38,-0.50,-1.44,-0.37,9,3
1772823618.458655,6457972,-0.04,0.00,-0.07,-160.75,-79.12,102.12,1.06,0.44,-0.69,-0.02,-0.09,-0.09,62.06,-77.06,14.38,-0.31,-1.44,-0.31,8,3
1772823618.499986,6458014,-0.04,-0.02,-0.08,-160.87,-79.12,102.19,-0.50,1.06,-0.69,-0.02,-0.06,-0.11,61.94,-77.06,14.38,-1.00,-0.88,0.06,7,3
1772823618.539766,6458054,0.01,0.05,-0.12,-160.87,-79.12,102.12,-2.00,0.69,-0.56,-0.06,-0.04,-0.10,61.94,-77.06,14.31,-0.62,-0.69,0.37,7,3
1772823618.579803,6458094,-0.03,0.08,-0.16,-160.87,-79.12,102.06,-1.37,0.00,-0.13,-0.07,0.01,-0.13,61.88,-77.06,14.31,0.00,-1.56,0.31,6,3
1772823618.620168,6458134,-0.02,0.06,-0.11,-160.87,-79.12,102.06,0.94,0.37,-0.31,-0.03,-0.05,-0.10,61.75,-77.00,14.31,0.06,-1.37,-0.44,5,3
1772823618.660094,6458174,-0.03,0.01,-0.08,-160.87,-79.12,102.06,1.31,0.37,0.06,-0.02,-0.05,-0.09,61.56,-77.00,14.31,0.50,-1.25,-0.37,5,3
1772823618.700715,6458215,-0.03,0.00,-0.08,-160.94,-79.12,102.12,0.13,0.62,-0.06,-0.05,-0.05,-0.08,61.44,-77.00,14.31,-0.06,-0.94,0.00,5,3
1772823618.740831,6458255,-0.03,0.04,-0.11,-161.00,-79.06,102.12,-0.56,0.75,-0.37,-0.03,-0.04,-0.10,61.31,-76.94,14.31,-0.19,-1.00,0.06,4,3
1772823618.780891,6458295,-0.02,0.05,-0.14,-161.06,-79.06,102.12,-0.25,0.81,-0.06,-0.05,-0.04,-0.14,61.19,-76.94,14.31,-0.25,-1.00,-0.25,3,2
1772823618.820619,6458335,0.00,0.03,-0.12,-161.06,-79.06,102.12,0.00,0.37,0.13,-0.04,-0.02,-0.12,61.13,-76.94,14.31,-0.50,-1.12,-0.13,2,2
1772823618.860099,6458374,-0.04,0.03,-0.13,-161.06,-79.06,102.12,-0.06,0.06,0.13,-0.03,-0.05,-0.11,61.00,-76.87,14.31,0.00,-1.31,-0.19,2,2
1772823618.901241,6458415,-0.05,0.05,-0.10,-161.06,-79.06,102.12,0.00,0.00,0.25,-0.03,-0.06,-0.10,60.88,-76.87,14.25,0.06,-0.94,-0.37,5,2
1772823618.941424,6458455,-0.06,0.03,-0.12,-161.00,-79.06,102.12,0.25,0.50,0.62,-0.04,-0.07,-0.12,60.81,-76.87,14.25,-0.31,-0.75,-0.31,4,2
1772823618.981522,6458495,-0.05,0.05,-0.14,-161.06,-79.00,102.12,-0.37,1.06,0.44,-0.02,-0.05,-0.08,60.75,-76.87,14.25,-0.19,-0.75,-0.19,4,2
1772823619.021472,6458535,0.01,0.05,-0.13,-161.12,-79.00,102.12,-0.50,1.00,-0.06,0.00,-0.02,-0.12,60.75,-76.87,14.31,-0.19,-0.44,-0.37,4,2
1772823619.061544,6458576,-0.05,0.07,-0.17,-161.12,-78.94,102.06,-0.44,0.81,0.31,-0.10,-0.04,-0.09,60.81,-76.87,14.31,0.31,-0.25,0.50,5,2
1772823619.102434,6458616,0.00,0.01,-0.08,-161.25,-78.94,102.12,0.31,-0.13,-0.62,-0.03,-0.08,-0.17,60.88,-76.87,14.31,-0.75,-0.50,-0.19,6,2
1772823619.142437,6458656,-0.02,0.04,-0.07,-161.19,-78.94,102.06,-0.37,-0.50,0.75,-0.02,-0.06,-0.11,60.94,-76.87,14.25,-0.19,-0.50,-0.44,7,2
1772823619.182247,6458696,-0.05,0.03,-0.07,-161.06,-78.94,102.06,-0.62,0.19,0.62,-0.02,-0.04,-0.10,61.00,-76.87,14.31,-0.13,0.31,0.13,8,2
1772823619.222170,6458736,-0.05,0.08,-0.09,-160.87,-78.94,102.00,-1.37,0.69,0.69,-0.03,-0.04,-0.09,61.06,-76.87,14.31,0.00,0.31,0.25,8,2
1772823619.262565,6458776,-0.06,0.09,-0.11,-160.87,-78.94,101.94,-0.56,0.75,-0.06,-0.09,-0.06,-0.05,61.13,-76.87,14.31,-0.13,-0.31,0.00,10,2
1772823619.303016,6458817,-0.07,0.06,-0.12,-160.87,-78.87,101.94,0.62,0.62,-0.31,-0.03,-0.03,-0.13,61.06,-76.87,14.31,-0.25,-0.31,-0.25,9,2
1772823619.342889,6458857,-0.03,0.03,-0.12,-161.00,-78.87,102.00,0.69,1.19,-0.06,-0.01,-0.07,-0.09,61.06,-76.87,14.31,0.37,-0.19,-0.13,10,1
1772823619.382693,6458897,0.00,0.03,-0.15,-161.06,-78.81,102.00,0.06,0.88,0.13,-0.01,-0.05,-0.13,61.06,-76.87,14.31,-0.19,-0.13,0.25,11,1
1772823619.422961,6458937,-0.01,0.04,-0.14,-161.12,-78.81,102.00,-0.81,0.69,-0.13,-0.04,-0.02,-0.15,61.06,-76.87,14.31,0.00,0.19,0.25,13,1
1772823619.463113,6458977,0.01,0.06,-0.12,-161.12,-78.81,101.94,-0.25,0.13,-0.19,-0.05,-0.06,-0.14,61.06,-76.87,14.31,-0.19,-0.44,0.06,13,1
1772823619.503635,6459018,-0.03,0.03,-0.12,-161.12,-78.81,101.94,0.62,-0.88,0.00,-0.05,-0.04,-0.11,61.06,-76.87,14.31,-0.19,-0.31,0.06,13,1
1772823619.543518,6459057,-0.06,0.02,-0.12,-161.06,-78.81,102.00,0.50,-0.50,-0.13,-0.02,-0.08,-0.10,61.06,-76.87,14.31,0.00,-0.19,0.00,14,1
1772823619.583692,6459098,-0.04,0.03,-0.17,-161.06,-78.81,102.00,0.00,-0.25,0.19,-0.05,-0.04,-0.14,61.06,-76.87,14.31,-0.19,-0.06,-0.06,14,1
1772823619.623764,6459138,-0.06,0.03,-0.09,-161.00,-78.81,102.00,-0.69,0.00,0.56,-0.01,-0.04,-0.12,61.06,-76.87,14.31,-0.13,-0.13,-0.19,15,1
1772823619.663716,6459178,-0.05,0.06,-0.11,-160.94,-78.81,101.94,-0.56,0.13,0.50,-0.06,-0.10,-0.06,61.06,-76.87,14.31,0.25,0.06,0.19,14,1
1772823619.704433,6459218,-0.01,0.05,-0.13,-160.94,-78.81,101.94,-0.56,-0.31,0.50,-0.04,-0.05,-0.14,61.13,-76.87,14.31,-0.25,0.37,0.00,14,1
1772823619.744539,6459258,-0.05,0.12,-0.13,-160.81,-78.81,101.94,0.00,-1.06,-0.06,-0.07,-0.02,-0.10,61.13,-76.87,14.31,-0.25,0.25,0.25,14,1
1772823619.784438,6459298,0.00,0.02,-0.11,-160.81,-78.87,101.94,0.62,-1.31,-0.19,-0.03,-0.08,-0.20,61.13,-76.87,14.25,0.00,-0.31,-0.50,14,1
1772823619.824533,6459338,-0.03,0.02,-0.05,-160.56,-78.94,101.94,0.00,-1.56,0.94,0.00,-0.08,-0.15,61.06,-76.87,14.25,-0.19,-0.13,-0.06,15,1
1772823619.864626,6459378,-0.05,0.02,-0.08,-160.31,-78.94,101.87,-1.31,-0.69,1.00,-0.04,-0.07,-0.10,61.06,-76.87,14.25,-0.13,-0.06,0.13,15,1
1772823619.905194,6459419,-0.03,0.10,-0.10,-160.12,-78.94,101.81,-1.75,-0.37,0.19,-0.02,-0.04,-0.07,61.06,-76.87,14.25,-0.31,-0.06,0.06,15,1
1772823619.945298,6459459,-0.03,0.12,-0.14,-160.12,-78.94,101.75,-0.37,0.00,0.13,-0.04,-0.02,-0.15,61.06,-76.87,14.25,0.06,-0.25,0.13,14,1
1772823619.985448,6459499,-0.06,0.05,-0.12,-160.12,-78.94,101.75,1.31,-0.19,-0.37,-0.04,-0.06,-0.12,61.06,-76.87,14.25,0.00,-0.31,-0.19,14,1
1772823620.025350,6459539,-0.04,0.00,-0.11,-160.19,-78.94,101.81,0.75,-0.37,0.31,-0.01,-0.07,-0.11,61.06,-76.87,14.25,0.50,-0.13,-0.06,13,1
1772823620.065229,6459579,-0.01,0.02,-0.13,-160.19,-78.94,101.81,-0.37,-0.31,0.31,-0.03,-0.07,-0.11,61.06,-76.87,14.25,0.13,0.13,0.19,12,1
1772823620.105742,6459620,-0.01,0.04,-0.14,-160.12,-78.94,101.81,-0.94,-1.12,0.19,-0.04,-0.03,-0.09,61.06,-76.87,14.25,-0.13,0.00,0.31,12,1
1772823620.145736,6459660,-0.02,0.05,-0.14,-160.00,-79.00,101.75,-0.44,-1.94,0.62,-0.04,-0.07,-0.17,61.06,-76.87,14.25,0.69,-0.31,0.50,12,2
1772823620.185715,6459700,0.00,0.07,-0.17,-159.69,-79.06,101.75,0.50,-2.25,0.69,-0.02,-0.05,-0.11,61.06,-76.87,14.31,0.31,-0.31,0.50,11,2
1772823620.225755,6459740,-0.02,0.04,-0.08,-159.44,-79.19,101.75,0.50,-2.37,0.06,-0.02,-0.07,-0.11,61.06,-76.87,14.31,-0.44,0.06,0.19,9,2
1772823620.266055,6459780,-0.06,0.02,-0.07,-159.31,-79.25,101.75,0.13,-2.37,0.13,-0.04,-0.04,-0.13,61.06,-76.87,14.31,-0.19,0.06,0.00,7,2
1772823620.306499,6459820,-0.10,0.02,-0.07,-159.12,-79.31,101.75,-0.19,-1.81,0.56,-0.04,-0.06,-0.11,61.06,-76.87,14.31,0.13,-0.13,0.19,5,3
1772823620.346363,6459860,-0.10,0.07,-0.09,-158.94,-79.37,101.75,-0.13,-0.62,0.56,-0.03,-0.10,-0.08,61.06,-76.87,14.31,0.75,0.37,0.37,5,3
1772823620.386275,6459901,-0.03,0.07,-0.11,-158.94,-79.37,101.75,0.13,0.50,0.25,-0.04,-0.04,-0.17,61.06,-76.87,14.31,-0.19,0.88,0.37,5,3
1772823620.426519,6459941,-0.06,0.11,-0.13,-158.94,-79.37,101.75,-0.06,-1.12,-0.62,-0.08,0.00,-0.13,61.06,-76.87,14.31,-0.31,0.44,0.56,4,3
1772823620.466626,6459981,0.00,0.01,-0.04,-159.12,-79.44,101.81,0.81,-1.06,-1.12,0.00,-0.07,-0.18,61.19,-76.87,14.25,-0.44,-0.31,-0.37,5,3
1772823620.507029,6460021,-0.04,0.00,-0.01,-159.12,-79.44,101.87,0.62,-0.94,0.25,0.00,-0.06,-0.19,61.25,-76.87,14.31,-0.75,-0.37,-0.25,4,3
1772823620.547232,6460061,-0.08,0.02,-0.04,-159.00,-79.50,101.87,-0.69,-0.13,1.00,-0.02,-0.03,-0.09,61.38,-76.87,14.31,0.44,-0.44,-0.06,3,3
1772823620.587194,6460101,-0.09,0.11,-0.14,-158.81,-79.44,101.75,-1.19,0.81,0.37,-0.06,-0.03,-0.08,61.38,-76.87,14.31,0.75,-0.75,0.06,3,2
1772823620.627246,6460141,-0.02,0.13,-0.14,-158.94,-79.44,101.75,0.69,1.50,-0.44,-0.01,-0.01,-0.16,61.31,-76.87,14.31,0.13,-0.44,0.06,3,2
1772823620.667382,6460181,0.02,0.00,-0.12,-159.19,-79.37,101.81,1.56,0.69,-1.06,-0.04,-0.05,-0.16,61.31,-76.87,14.31,-1.00,-0.88,-0.50,3,2
1772823620.707973,6460222,-0.02,0.00,-0.05,-159.44,-79.37,101.94,-0.13,0.88,-0.50,-0.02,-0.05,-0.18,61.31,-76.87,14.31,-1.00,-0.81,-0.19,4,2
1772823620.748008,6460262,-0.06,0.03,-0.09,-159.44,-79.37,101.87,-1.37,1.25,-0.19,-0.04,-0.03,-0.08,61.38,-76.81,14.25,-0.50,-0.62,0.31,3,2
1772823620.787789,6460302,-0.02,0.14,-0.13,-159.50,-79.31,101.81,-1.12,1.31,-0.06,-0.04,0.00,-0.13,61.31,-76.81,14.25,0.13,-0.62,0.19,3,2
1772823620.827924,6460342,0.00,0.11,-0.15,-159.62,-79.25,101.81,0.44,1.00,-0.69,-0.03,-0.03,-0.15,61.25,-76.81,14.25,0.13,-0.81,0.06,4,2
1772823620.868160,6460382,0.00,0.04,-0.16,-159.75,-79.25,101.87,1.56,0.31,-0.88,-0.04,-0.05,-0.13,61.19,-76.81,14.25,0.06,-0.94,-0.19,4,2
1772823620.908526,6460423,-0.05,0.01,-0.12,-160.00,-79.31,102.00,1.25,0.25,-0.88,-0.02,-0.06,-0.08,61.06,-76.81,14.25,0.00,-0.94,-0.37,4,2
1772823620.948548,6460463,-0.07,0.02,-0.14,-160.19,-79.25,102.00,0.37,1.06,-0.69,-0.05,-0.08,-0.11,61.06,-76.75,14.25,-0.06,-0.62,0.00,5,2
1772823620.988682,6460503,-0.03,0.05,-0.14,-160.31,-79.25,102.00,-0.19,1.56,-0.31,-0.01,-0.06,-0.12,61.06,-76.75,14.25,-0.13,-0.37,0.00,7,2
1772823621.028724,6460543,0.00,0.07,-0.10,-160.44,-79.19,102.00,-0.62,1.19,-0.06,-0.05,-0.05,-0.08,61.13,-76.75,14.25,0.13,-0.50,-0.06,7,3
1772823621.069013,6460583,0.03,0.04,-0.15,-160.50,-79.12,102.00,0.19,1.06,-0.25,-0.03,-0.04,-0.14,61.13,-76.75,14.25,-0.13,-0.62,-0.25,8,3
1772823621.109082,6460623,-0.02,0.09,-0.16,-160.50,-79.12,102.00,0.50,-0.13,0.06,-0.09,0.00,-0.12,61.19,-76.75,14.25,0.56,-0.06,0.19,8,3
1772823621.149335,6460663,0.00,0.00,-0.11,-160.62,-79.12,102.06,0.88,-0.50,-0.62,-0.05,-0.05,-0.14,61.25,-76.75,14.25,-0.06,-1.06,-0.50,8,3
1772823621.189431,6460703,-0.03,0.04,-0.08,-160.62,-79.19,102.06,0.13,-1.19,0.56,0.00,-0.05,-0.13,61.19,-76.75,14.25,-0.06,-0.94,-0.19,9,3
1772823621.229549,6460744,-0.06,0.05,-0.09,-160.50,-79.19,102.06,-0.75,-0.06,0.50,-0.02,-0.04,-0.10,61.13,-76.75,14.25,0.06,-0.31,0.13,10,3
1772823621.269605,6460784,-0.04,0.13,-0.10,-160.50,-79.19,102.06,-0.75,0.50,0.13,-0.04,-0.06,-0.07,61.19,-76.75,14.25,0.06,-0.31,0.13,10,3
1772823621.310213,6460824,-0.06,0.13,-0.14,-160.50,-79.19,102.00,-0.19,0.50,-0.25,-0.07,-0.02,-0.08,61.19,-76.75,14.25,0.19,-0.25,0.00,9,3
1772823621.350216,6460864,-0.05,0.05,-0.15,-160.62,-79.19,102.06,1.19,1.06,-0.81,-0.03,-0.07,-0.06,61.25,-76.75,14.25,0.00,-0.56,-0.25,9,4
1772823621.390112,6460904,0.01,0.03,-0.17,-160.81,-79.12,102.12,1.00,1.25,-0.19,-0.01,-0.06,-0.14,61.25,-76.75,14.25,0.50,0.13,-0.19,8,4
1772823621.430156,6460944,0.02,0.03,-0.15,-160.87,-79.06,102.12,0.13,0.88,-0.25,-0.02,-0.03,-0.12,61.31,-76.75,14.31,0.25,0.13,0.25,8,4
1772823621.470523,6460985,-0.02,0.06,-0.16,-160.87,-79.06,102.12,-0.62,0.31,-0.13,-0.02,-0.02,-0.14,61.38,-76.75,14.31,0.06,0.31,0.19,9,4
1772823621.510915,6461025,-0.06,0.07,-0.13,-160.81,-79.06,102.12,-0.31,-0.56,0.37,-0.03,-0.01,-0.10,61.38,-76.75,14.31,0.06,-0.19,0.13,9,4
1772823621.550841,6461065,-0.04,0.04,-0.12,-160.81,-79.12,102.12,0.19,-0.56,0.44,-0.06,-0.03,-0.05,61.44,-76.75,14.31,0.06,0.13,-0.06,9,4
1772823621.591051,6461105,-0.06,0.04,-0.12,-160.81,-79.12,102.12,0.37,-0.06,0.19,-0.03,-0.04,-0.11,61.44,-76.75,14.31,-0.06,0.19,-0.19,8,3
1772823621.630918,6461145,0.00,0.05,-0.10,-160.81,-79.12,102.12,-0.37,0.19,0.31,-0.02,-0.05,-0.13,61.44,-76.75,14.31,0.19,0.25,-0.19,7,4
1772823621.671393,6461185,-0.05,0.05,-0.12,-160.81,-79.06,102.06,-0.44,0.25,0.88,-0.01,-0.03,-0.12,61.44,-76.75,14.31,-0.06,0.13,-0.19,6,3
1772823621.711471,6461226,-0.01,0.06,-0.14,-160.69,-79.06,102.06,-0.69,0.69,0.37,-0.03,-0.06,-0.11,61.44,-76.75,14.31,0.06,0.00,-0.06,6,3
1772823621.751692,6461266,-0.04,0.08,-0.18,-160.62,-79.06,102.00,-0.62,-0.06,0.50,-0.07,-0.05,-0.13,61.44,-76.75,14.31,-0.25,0.25,0.06,5,3
1772823621.791639,6461306,-0.03,0.13,-0.19,-160.56,-79.06,102.00,0.44,-0.75,-0.37,-0.04,0.01,-0.18,61.44,-76.75,14.31,-0.31,0.31,0.31,5,3
1772823621.831806,6461346,0.00,0.04,-0.11,-160.50,-79.12,102.00,0.56,-1.31,0.31,-0.01,-0.06,-0.15,61.44,-76.75,14.31,0.13,-0.31,-0.44,4,3
1772823621.872048,6461386,-0.08,0.02,-0.02,-160.37,-79.19,102.00,0.19,-0.69,0.56,0.00,-0.09,-0.12,61.38,-76.75,14.31,0.25,-0.25,-0.19,3,3
1772823621.912267,6461426,-0.02,0.06,-0.11,-160.25,-79.19,101.94,-1.19,0.50,0.69,-0.04,-0.05,-0.10,61.38,-76.75,14.31,0.06,-0.06,0.06,3,3
1772823621.952477,6461466,-0.05,0.11,-0.17,-160.19,-79.12,101.87,-1.25,0.44,-0.19,-0.03,-0.03,-0.18,61.38,-76.75,14.31,-0.19,-0.06,0.13,3,2
1772823621.992370,6461506,-0.03,0.17,-0.19,-160.19,-79.12,101.87,-0.06,0.37,-0.25,-0.06,-0.03,-0.09,61.38,-76.75,14.31,0.25,0.00,0.19,3,3
1772823622.032693,6461547,-0.04,0.05,-0.14,-160.25,-79.12,101.94,1.19,0.13,-0.44,-0.03,-0.03,-0.09,61.31,-76.75,14.31,-0.13,-0.44,-0.25,3,2
1772823622.072675,6461587,0.00,0.02,-0.13,-160.25,-79.12,102.00,0.81,0.25,-0.06,-0.02,-0.05,-0.13,61.31,-76.75,14.31,0.37,-0.13,-0.06,3,2
1772823622.113184,6461627,0.00,0.01,-0.14,-160.25,-79.12,102.00,-0.31,0.06,-0.06,-0.06,-0.02,-0.11,61.31,-76.75,14.31,-0.13,-0.13,0.13,4,2
1772823622.153367,6461667,-0.02,0.07,-0.17,-160.25,-79.12,101.94,-0.62,-0.69,-0.13,-0.05,-0.03,-0.12,61.31,-76.75,14.31,-0.19,-0.31,0.13,4,2
1772823622.193286,6461707,-0.03,0.06,-0.12,-160.19,-79.19,101.94,0.25,-0.81,0.06,-0.04,-0.04,-0.12,61.31,-76.75,14.31,-0.06,-0.19,-0.06,4,2
1772823622.233505,6461748,-0.03,0.04,-0.12,-160.19,-79.19,101.94,0.75,-0.62,0.19,-0.04,-0.04,-0.09,61.31,-76.75,14.31,0.00,-0.13,-0.19,6,2
1772823622.273403,6461788,-0.02,0.02,-0.09,-160.19,-79.19,102.00,0.06,-0.44,0.06,-0.01,-0.05,-0.15,61.31,-76.75,14.31,0.13,0.00,0.00,9,2
1772823622.314100,6461828,-0.04,0.02,-0.15,-160.12,-79.19,101.94,-0.56,-0.81,0.75,-0.03,-0.04,-0.15,61.31,-76.75,14.31,-0.06,-0.13,-0.13,9,2
1772823622.354166,6461868,-0.03,0.07,-0.15,-159.81,-79.25,101.87,-0.88,-1.06,0.88,-0.04,-0.03,-0.11,61.31,-76.75,14.31,-0.19,-0.50,-0.13,10,3
1772823622.393688,6461908,0.00,0.06,-0.17,-159.69,-79.25,101.87,-0.56,-0.81,0.62,0.02,-0.01,-0.18,61.31,-76.75,14.31,0.06,0.37,0.00,10,3
1772823622.434133,6461948,0.01,0.07,-0.18,-159.44,-79.31,101.81,-0.62,-1.62,1.00,-0.09,-0.01,-0.11,61.31,-76.75,14.31,0.13,-0.06,0.50,12,2
1772823622.474589,6461988,-0.07,0.10,-0.16,-159.25,-79.37,101.81,0.25,-2.69,-0.50,-0.03,-0.04,-0.20,61.31,-76.75,14.25,-0.88,-0.13,-0.31,13,2
1772823622.514684,6462029,-0.01,0.02,-0.09,-159.06,-79.44,101.87,0.75,-1.81,0.69,-0.01,-0.10,-0.11,61.31,-76.75,14.25,0.25,-0.37,-0.37,14,2
1772823622.554374,6462069,-0.10,0.02,-0.09,-158.75,-79.50,101.81,0.25,-1.44,1.25,0.00,-0.07,-0.16,61.31,-76.75,14.25,0.06,0.00,0.00,15,2
1772823622.594698,6462109,0.00,0.08,-0.12,-158.50,-79.50,101.75,-1.69,-0.56,0.69,-0.02,-0.03,-0.17,61.31,-76.75,14.25,-0.31,-0.25,0.00,16,2
1772823622.635288,6462149,-0.11,0.14,-0.12,-158.44,-79.50,101.69,-1.50,-0.69,-0.25,-0.05,-0.05,-0.15,61.38,-76.75,14.25,-0.25,-0.19,-0.13,15,2
1772823622.675223,6462189,-0.08,0.17,-0.12,-158.37,-79.50,101.69,0.25,-0.19,-0.31,-0.05,-0.03,-0.06,61.31,-76.75,14.25,-0.25,-0.94,-0.13,15,1
1772823622.715556,6462229,-0.05,0.04,-0.11,-158.44,-79.50,101.75,1.69,0.44,-0.44,-0.03,-0.08,-0.15,61.25,-76.75,14.25,0.13,-0.75,-0.37,15,1
1772823622.755294,6462269,-0.03,0.01,-0.10,-158.50,-79.50,101.81,0.62,0.56,-0.37,0.00,-0.04,-0.16,61.19,-76.75,14.25,0.13,-0.75,0.00,16,1
1772823622.795350,6462309,-0.02,0.06,-0.14,-158.69,-79.50,101.81,-0.31,1.00,-0.94,-0.05,0.00,-0.12,61.13,-76.69,14.25,0.00,-0.75,0.25,16,1
1772823622.835620,6462350,-0.04,0.11,-0.13,-158.94,-79.50,101.87,0.19,0.37,-1.06,-0.05,-0.01,-0.13,61.06,-76.69,14.25,0.25,-0.88,0.00,16,1
1772823622.875909,6462390,-0.04,0.04,-0.15,-159.12,-79.50,101.94,1.75,0.50,-0.81,-0.03,-0.06,-0.12,60.94,-76.69,14.25,0.50,-0.94,-0.31,16,1
1772823622.916128,6462430,-0.05,0.02,-0.11,-159.25,-79.50,102.00,1.75,0.94,-0.25,-0.01,-0.06,-0.13,60.75,-76.69,14.25,0.44,-1.12,0.06,16,1
1772823622.956193,6462470,-0.02,0.02,-0.15,-159.37,-79.44,102.06,0.31,1.25,-0.50,-0.04,-0.07,-0.15,60.63,-76.62,14.25,-0.06,-0.81,0.00,16,1
1772823622.996494,6462510,-0.01,0.04,-0.15,-159.44,-79.44,102.06,-0.94,0.75,-0.31,-0.03,-0.05,-0.15,60.63,-76.62,14.25,-0.62,-0.75,-0.19,16,1
1772823623.036479,6462550,-0.05,0.07,-0.13,-159.44,-79.37,102.00,-0.88,0.62,0.25,-0.02,-0.06,-0.12,60.50,-76.62,14.19,-0.19,-0.56,0.06,16,1
1772823623.076358,6462591,0.00,0.11,-0.14,-159.50,-79.37,102.00,-0.06,0.75,0.00,-0.05,-0.07,-0.14,60.44,-76.62,14.19,0.31,-0.50,0.06,16,1
1772823623.117109,6462631,-0.04,0.04,-0.17,-159.56,-79.37,102.00,0.50,0.81,-0.19,-0.02,-0.05,-0.15,60.44,-76.62,14.19,-0.13,-0.13,-0.19,15,1
1772823623.157249,6462671,-0.04,0.06,-0.18,-159.62,-79.31,102.00,0.69,0.50,-0.56,-0.08,-0.04,-0.15,60.44,-76.62,14.19,-0.06,-0.06,-0.06,15,1
1772823623.197146,6462711,-0.01,0.01,-0.13,-159.81,-79.31,102.06,0.69,-0.06,-0.75,-0.04,-0.08,-0.17,60.44,-76.62,14.25,0.13,-1.06,-0.69,14,2
1772823623.237192,6462751,-0.06,0.02,-0.09,-159.81,-79.31,102.06,-0.06,0.37,0.25,0.03,-0.07,-0.13,60.38,-76.56,14.25,-0.44,-0.75,-0.19,14,2
1772823623.277384,6462791,-0.04,0.04,-0.13,-159.87,-79.31,102.06,-1.00,1.56,0.19,-0.03,-0.04,-0.08,60.44,-76.56,14.25,0.25,-0.37,0.06,13,2
1772823623.317670,6462832,-0.04,0.10,-0.17,-159.94,-79.25,102.00,-0.69,1.31,-0.19,-0.06,-0.06,-0.16,60.50,-76.56,14.25,0.00,-0.37,-0.13,12,2
1772823623.357526,6462872,0.00,0.09,-0.19,-160.06,-79.19,102.00,0.37,1.31,-0.31,-0.04,-0.01,-0.09,60.50,-76.56,14.25,0.25,0.00,-0.13,11,2
1772823623.397620,6462912,0.00,0.03,-0.21,-160.25,-79.19,102.06,1.12,1.00,-0.75,-0.03,-0.06,-0.13,60.56,-76.56,14.25,0.56,-0.25,-0.13,10,2
1772823623.437530,6462952,0.00,0.01,-0.18,-160.31,-79.12,102.06,0.56,0.81,-0.13,-0.01,-0.05,-0.11,60.63,-76.56,14.25,0.13,0.25,0.00,10,2
1772823623.478128,6462992,-0.02,0.02,-0.20,-160.37,-79.12,102.06,-0.56,0.06,-0.13,-0.06,-0.04,-0.09,60.69,-76.56,14.25,-0.06,0.37,0.25,9,2
1772823623.518254,6463032,-0.02,0.06,-0.18,-160.31,-79.12,102.00,-0.88,-0.56,0.06,-0.07,-0.01,-0.10,60.75,-76.56,14.25,-0.06,0.37,0.25,8,2
1772823623.558278,6463072,-0.05,0.06,-0.15,-160.31,-79.12,102.00,0.13,-0.37,0.00,-0.03,-0.04,-0.11,60.75,-76.56,14.25,0.00,0.06,0.00,8,2
1772823623.598267,6463112,-0.04,0.04,-0.13,-160.31,-79.12,102.06,0.62,-0.62,0.19,-0.02,-0.03,-0.10,60.81,-76.56,14.25,0.25,0.13,0.06,7,2
1772823623.638444,6463153,-0.02,0.02,-0.12,-160.31,-79.12,102.06,0.31,0.13,0.25,-0.03,-0.06,-0.13,60.88,-76.62,14.25,0.13,0.13,-0.19,6,3
1772823623.678751,6463193,-0.01,0.02,-0.13,-160.25,-79.12,102.00,-0.44,0.00,0.69,-0.03,-0.06,-0.15,60.94,-76.62,14.25,-0.06,0.44,-0.13,5,3
1772823623.719097,6463233,-0.04,0.03,-0.11,-160.00,-79.12,101.94,-1.25,-0.25,0.88,-0.01,-0.03,-0.14,61.00,-76.62,14.25,-0.13,0.00,-0.06,4,3
1772823623.759133,6463273,-0.04,0.13,-0.14,-159.81,-79.12,101.81,-1.37,0.25,0.56,-0.03,-0.04,-0.18,61.06,-76.62,14.25,0.19,-0.19,0.00,4,3
1772823623.799144,6463313,-0.05,0.11,-0.18,-159.75,-79.12,101.81,-0.62,0.31,0.50,-0.07,-0.02,-0.14,61.13,-76.62,14.25,-0.37,0.25,0.19,4,3
1772823623.839490,6463353,-0.05,0.11,-0.18,-159.75,-79.12,101.81,0.44,-0.25,-0.13,-0.04,-0.01,-0.18,61.19,-76.62,14.25,-0.06,0.44,0.25,4,3
1772823623.879633,6463393,0.00,0.02,-0.09,-159.94,-79.12,101.87,1.06,-0.37,-0.69,-0.03,-0.08,-0.14,61.25,-76.62,14.25,0.25,-0.25,-0.44,3,4
1772823623.919626,6463434,-0.07,0.02,-0.10,-160.00,-79.12,101.87,0.31,-0.44,0.31,0.00,-0.07,-0.12,61.25,-76.62,14.31,0.00,-0.56,-0.25,2,4
1772823623.959628,6463474,0.00,0.02,-0.14,-159.94,-79.12,101.87,-1.00,1.00,0.69,-0.01,-0.04,-0.09,61.31,-76.62,14.31,0.00,-0.06,0.06,3,4
1772823624.000022,6463514,-0.01,0.10,-0.20,-159.94,-79.06,101.81,-1.50,0.56,0.06,-0.07,-0.03,-0.12,61.38,-76.62,14.31,-0.13,-0.19,0.00,4,4
1772823624.039974,6463554,0.00,0.13,-0.19,-159.94,-79.06,101.75,-0.44,0.25,-0.13,-0.04,0.00,-0.13,61.38,-76.62,14.31,0.25,-0.19,0.06,4,3
1772823624.080309,6463594,-0.01,0.06,-0.18,-160.00,-79.06,101.81,1.19,-0.13,-0.19,-0.04,-0.03,-0.09,61.38,-76.62,14.31,0.06,-0.37,-0.50,4,3
1772823624.120527,6463634,0.00,0.02,-0.16,-160.06,-79.06,101.87,1.12,-0.06,0.25,-0.02,-0.06,-0.09,61.38,-76.62,14.31,0.50,-0.56,-0.25,5,3
1772823624.160728,6463675,-0.01,0.01,-0.16,-160.06,-79.06,101.87,-0.25,-0.06,0.13,-0.05,-0.08,-0.09,61.38,-76.62,14.31,0.06,0.00,0.19,6,3
1772823624.200655,6463715,0.00,0.04,-0.20,-160.06,-79.06,101.87,-0.81,-0.13,-0.19,-0.04,-0.02,-0.13,61.44,-76.62,14.31,-0.19,0.19,0.25,6,3
1772823624.240956,6463755,0.01,0.08,-0.22,-160.00,-79.06,101.87,-0.19,-1.06,0.00,-0.04,-0.02,-0.12,61.44,-76.62,14.31,-0.31,-0.50,0.31,8,4
1772823624.280864,6463795,-0.03,0.03,-0.16,-159.87,-79.12,101.87,0.69,-1.37,0.19,-0.02,-0.04,-0.06,61.44,-76.62,14.31,0.00,-0.19,0.00,8,3
1772823624.321319,6463835,-0.04,0.03,-0.14,-159.81,-79.19,101.87,0.37,-1.06,0.37,-0.03,-0.06,-0.09,61.44,-76.62,14.31,0.06,0.06,-0.19,9,3
1772823624.361194,6463875,-0.01,0.02,-0.13,-159.69,-79.19,101.87,-0.50,-1.19,0.62,-0.02,-0.05,-0.14,61.44,-76.62,14.31,0.19,0.13,0.00,10,3
1772823624.401456,6463915,-0.03,0.05,-0.15,-159.37,-79.25,101.81,-0.88,-1.50,1.06,-0.04,-0.03,-0.12,61.44,-76.62,14.31,-0.25,0.13,-0.19,10,3
1772823624.441669,6463955,-0.05,0.10,-0.14,-159.00,-79.31,101.75,-1.06,-1.37,1.12,-0.08,-0.06,-0.04,61.44,-76.62,14.31,-0.31,-0.06,0.25,11,3
1772823624.481733,6463996,0.01,0.09,-0.19,-158.75,-79.31,101.69,-0.62,-1.44,0.81,-0.03,-0.03,-0.09,61.44,-76.62,14.31,-0.13,-0.13,0.00,11,3
1772823624.522115,6464036,-0.02,0.14,-0.17,-158.56,-79.37,101.69,0.13,-1.75,-0.06,-0.11,-0.02,-0.02,61.44,-76.62,14.31,-0.19,0.44,0.50,11,4
1772823624.562100,6464076,-0.04,0.00,-0.09,-158.62,-79.50,101.75,0.56,-2.25,-1.44,-0.02,-0.02,-0.18,61.50,-76.62,14.25,-2.50,0.00,-0.44,11,4
1772823624.602280,6464116,-0.02,-0.02,-0.09,-158.50,-79.56,101.75,-0.25,-1.50,1.00,0.00,-0.03,-0.21,61.56,-76.62,14.19,-0.81,-0.19,-0.31,12,4
1772823624.642199,6464156,0.02,0.07,-0.11,-158.06,-79.56,101.62,-1.37,-0.44,2.25,-0.03,-0.01,-0.13,61.63,-76.62,14.19,0.81,-0.31,0.25,11,4
1772823624.681389,6464195,-0.01,0.23,-0.14,-157.50,-79.50,101.44,-1.37,-0.31,2.00,-0.07,-0.01,-0.14,61.63,-76.62,14.25,1.37,-0.37,0.13,11,4
1772823624.722522,6464236,-0.03,0.24,-0.14,-157.06,-79.44,101.37,0.81,-0.75,0.88,-0.08,-0.03,-0.17,61.56,-76.56,14.31,1.19,-1.12,-0.44,10,4
1772823624.762682,6464277,-0.05,0.07,-0.14,-156.87,-79.50,101.44,2.75,-0.94,-0.13,0.00,-0.12,-0.11,61.38,-76.56,14.31,0.13,-0.94,-0.69,8,5
1772823624.802922,6464317,-0.07,-0.02,-0.10,-156.94,-79.44,101.50,1.50,0.00,-0.56,-0.01,-0.08,-0.17,61.38,-76.56,14.31,0.19,-0.75,-0.31,8,5
1772823624.843164,6464357,-0.12,-0.01,-0.06,-157.19,-79.44,101.56,-0.50,0.81,-1.06,-0.04,-0.04,-0.05,61.38,-76.50,14.38,-1.06,-0.75,0.00,8,5
1772823624.883030,6464397,-0.08,0.05,-0.12,-157.50,-79.44,101.50,-1.75,2.50,-1.37,-0.05,0.01,-0.12,61.38,-76.50,14.31,-0.50,-0.62,0.50,8,4
1772823624.923347,6464437,0.00,0.10,-0.16,-157.94,-79.31,101.50,-0.44,2.87,-1.06,-0.07,0.04,-0.13,61.31,-76.50,14.31,0.81,-0.69,0.37,7,4
1772823624.963304,6464477,-0.02,0.10,-0.19,-158.25,-79.19,101.56,1.37,1.62,-1.12,-0.03,0.02,-0.16,61.25,-76.50,14.31,0.62,-0.88,0.06,7,4
1772823625.003622,6464518,-0.01,0.01,-0.15,-158.69,-79.12,101.69,2.06,1.00,-1.25,-0.03,-0.03,-0.10,61.06,-76.50,14.31,-0.19,-0.88,-0.13,6,3
1772823625.044043,6464558,-0.04,-0.02,-0.14,-159.12,-79.12,101.81,1.12,1.12,-1.75,-0.02,-0.06,-0.08,61.00,-76.50,14.31,-0.50,-1.06,-0.13,6,3
1772823625.083784,6464598,0.01,0.00,-0.13,-159.50,-79.06,101.87,-0.19,0.94,-0.81,-0.03,-0.04,-0.12,60.94,-76.44,14.31,0.44,-0.94,-0.19,5,4
1772823625.124127,6464638,-0.04,0.04,-0.16,-159.56,-79.06,101.87,-0.25,0.19,0.37,-0.04,-0.06,-0.07,60.88,-76.44,14.31,0.19,-0.88,-0.37,5,3
1772823625.164060,6464678,-0.05,0.03,-0.13,-159.50,-79.06,101.81,0.19,0.44,0.44,-0.02,-0.08,-0.11,60.81,-76.44,14.31,0.06,-0.44,-0.31,5,3
1772823625.204130,6464718,-0.08,0.05,-0.17,-159.44,-79.00,101.81,-0.50,0.62,0.62,-0.04,-0.03,-0.05,60.81,-76.44,14.31,0.25,-0.13,0.13,4,3
1772823625.244483,6464758,-0.06,0.08,-0.14,-159.44,-79.00,101.81,-0.25,0.31,-0.56,0.00,-0.02,-0.22,60.81,-76.44,14.31,-0.25,-0.13,-0.06,3,3
1772823625.284533,6464799,0.00,0.02,-0.10,-159.50,-79.00,101.81,-0.13,0.25,-0.25,-0.03,-0.10,-0.07,60.81,-76.44,14.31,-0.19,-0.94,-0.44,3,3
1772823625.324956,6464839,-0.04,0.02,-0.09,-159.56,-78.94,101.81,-0.25,0.31,0.19,-0.01,-0.07,-0.10,60.81,-76.44,14.31,-0.44,-0.37,0.19,4,3
1772823625.364720,6464879,-0.02,0.04,-0.14,-159.56,-78.94,101.75,-1.12,1.12,0.00,-0.06,-0.03,-0.09,60.88,-76.44,14.31,0.13,0.06,0.19,4,3
1772823625.404880,6464919,-0.02,0.10,-0.15,-159.50,-78.87,101.69,-0.88,0.69,-0.50,-0.07,-0.02,-0.15,60.94,-76.44,14.31,0.25,0.00,-0.06,4,3
1772823625.445148,6464959,-0.02,0.08,-0.14,-159.56,-78.87,101.69,0.69,0.37,-0.06,-0.04,-0.02,-0.07,60.94,-76.44,14.31,0.56,0.19,-0.19,3,3
1772823625.485347,6464999,-0.05,0.00,-0.14,-159.56,-78.81,101.75,1.25,0.19,-0.31,-0.05,-0.07,-0.06,61.00,-76.44,14.31,0.44,0.13,-0.25,4,2
1772823625.525698,6465040,-0.04,0.00,-0.09,-159.62,-78.81,101.75,0.06,0.37,-0.06,-0.02,-0.05,-0.13,61.00,-76.44,14.31,0.00,0.25,0.00,5,2
1772823625.565561,6465080,-0.03,0.01,-0.13,-159.62,-78.81,101.75,-1.06,0.56,-0.06,-0.06,-0.06,-0.06,61.06,-76.44,14.31,-0.13,0.19,0.19,6,2
1772823625.606047,6465120,-0.02,0.03,-0.18,-159.69,-78.75,101.69,-0.94,0.75,-0.06,-0.06,-0.02,-0.10,61.06,-76.44,14.31,-0.06,0.06,-0.06,7,2
1772823625.645760,6465160,0.01,0.04,-0.18,-159.75,-78.69,101.69,0.25,0.88,0.19,-0.04,-0.02,-0.11,61.13,-76.44,14.31,0.06,-0.13,-0.25,8,2
1772823625.685951,6465200,0.01,0.02,-0.14,-159.75,-78.69,101.69,0.44,-0.19,0.37,-0.02,-0.03,-0.12,61.13,-76.44,14.31,0.13,-0.06,-0.13,9,2
1772823625.726666,6465240,-0.01,0.00,-0.12,-159.75,-78.69,101.62,-0.13,-0.44,0.44,-0.03,-0.05,-0.07,61.13,-76.44,14.31,-0.13,-0.06,-0.25,10,3
1772823625.766651,6465280,-0.02,0.05,-0.11,-159.69,-78.69,101.69,-0.19,-0.94,0.44,-0.04,-0.04,-0.07,61.13,-76.44,14.31,-0.13,-0.19,-0.31,11,3
1772823625.806683,6465320,-0.04,0.04,-0.13,-159.62,-78.75,101.69,-0.31,-0.88,0.56,-0.01,-0.05,-0.10,61.13,-76.44,14.31,-0.06,-0.19,-0.44,12,3
1772823625.846464,6465361,-0.06,0.05,-0.09,-159.56,-78.75,101.62,0.06,-0.37,0.44,-0.05,-0.11,-0.13,61.13,-76.44,14.31,0.44,0.19,-0.25,13,3
1772823625.886640,6465401,-0.04,0.02,-0.13,-159.56,-78.75,101.62,-0.19,0.13,0.62,-0.03,-0.07,-0.14,61.13,-76.44,14.31,-0.06,0.19,-0.25,14,3
1772823625.926857,6465441,-0.05,0.09,-0.14,-159.56,-78.75,101.62,0.00,0.00,0.19,-0.06,-0.02,-0.15,61.13,-76.44,14.38,-0.06,0.31,0.13,15,3
1772823625.967360,6465481,-0.01,0.01,-0.11,-159.56,-78.75,101.62,0.44,-0.37,-0.37,-0.03,-0.06,-0.20,61.13,-76.44,14.38,0.31,-0.44,-0.69,16,3
1772823626.007132,6465521,-0.05,0.02,-0.06,-159.44,-78.75,101.62,0.37,-0.50,0.94,0.00,-0.08,-0.13,61.13,-76.44,14.38,0.50,-0.31,-0.19,16,3
1772823626.047372,6465561,-0.03,0.03,-0.09,-159.25,-78.75,101.62,-0.31,-0.31,1.12,-0.03,-0.05,-0.11,61.13,-76.44,14.38,0.13,-0.31,-0.13,16,3
1772823626.087384,6465601,-0.04,0.10,-0.09,-159.06,-78.75,101.56,-1.37,0.06,0.31,-0.06,-0.07,-0.08,61.13,-76.44,14.38,-0.06,-0.19,-0.06,17,3
1772823626.127954,6465642,-0.05,0.14,-0.12,-159.06,-78.75,101.50,-0.37,0.31,-0.13,-0.05,-0.03,-0.14,61.13,-76.44,14.38,0.06,-0.37,0.00,17,2
1772823626.168014,6465682,-0.06,0.04,-0.15,-159.12,-78.75,101.56,1.56,0.25,-0.69,-0.03,-0.06,-0.07,61.13,-76.44,14.38,0.13,-0.31,-0.31,17,2
1772823626.207811,6465722,0.00,0.01,-0.17,-159.19,-78.75,101.62,0.88,0.37,-0.06,-0.02,-0.05,-0.11,61.13,-76.44,14.38,0.44,-0.31,0.00,17,2
1772823626.248110,6465762,0.00,0.01,-0.15,-159.19,-78.75,101.62,-0.37,-0.06,0.00,-0.04,-0.07,-0.11,61.13,-76.44,14.38,0.25,-0.25,0.19,17,2
1772823626.288313,6465802,-0.01,0.06,-0.15,-159.19,-78.75,101.62,-0.62,-0.37,-0.06,-0.04,-0.02,-0.12,61.13,-76.44,14.38,-0.31,-0.13,0.25,17,3
1772823626.328626,6465843,-0.02,0.05,-0.13,-159.12,-78.81,101.62,-0.06,-0.75,-0.19,-0.05,-0.05,-0.10,61.13,-76.44,14.38,-0.31,-0.13,0.06,16,3
1772823626.368648,6465883,-0.02,0.02,-0.12,-159.06,-78.81,101.62,0.62,-0.81,0.06,-0.06,-0.05,-0.09,61.13,-76.44,14.38,-0.19,-0.44,-0.19,15,3
1772823626.408692,6465923,-0.04,0.00,-0.10,-159.00,-78.87,101.62,0.25,-0.88,0.31,-0.02,-0.05,-0.14,61.13,-76.44,14.38,0.00,-0.19,-0.19,14,3
1772823626.449036,6465963,-0.04,0.01,-0.12,-158.94,-78.87,101.62,-0.62,-0.25,0.69,-0.02,-0.05,-0.12,61.13,-76.44,14.38,0.13,-0.06,-0.06,15,3
1772823626.489212,6466003,-0.05,0.04,-0.10,-158.94,-78.87,101.56,-0.88,-0.31,0.50,-0.03,-0.07,-0.11,61.13,-76.44,14.38,-0.37,-0.25,0.00,13,3
1772823626.529499,6466043,-0.03,0.11,-0.12,-158.81,-78.87,101.50,-1.00,0.00,0.56,-0.05,-0.07,-0.04,61.13,-76.44,14.38,-0.62,-0.19,-0.13,12,3
1772823626.569490,6466083,0.06,0.06,-0.13,-158.81,-78.87,101.50,-0.25,0.19,0.06,-0.05,-0.03,-0.15,61.13,-76.44,14.38,-0.56,-0.62,-0.25,12,3
1772823626.609630,6466124,-0.04,0.17,-0.13,-158.81,-78.87,101.50,0.06,-0.62,-0.13,-0.07,-0.01,-0.11,61.06,-76.44,14.38,0.31,-0.62,0.37,11,2
1772823626.649820,6466164,-0.03,0.02,-0.08,-158.94,-78.87,101.56,1.19,-0.94,-1.25,-0.02,-0.06,-0.20,61.06,-76.37,14.38,-0.37,-0.69,-0.37,10,2
1772823626.689967,6466204,-0.01,0.01,-0.07,-158.94,-78.94,101.62,0.69,-0.88,0.31,-0.01,-0.10,-0.14,61.00,-76.37,14.38,-0.19,-0.69,-0.19,9,2
1772823626.729964,6466244,0.03,0.00,-0.08,-158.94,-78.94,101.62,-0.88,-0.19,0.37,-0.05,-0.08,-0.14,60.94,-76.37,14.31,0.44,-0.75,0.37,9,2
1772823626.770245,6466284,-0.07,0.14,-0.13,-158.81,-78.94,101.56,-2.00,-0.62,0.44,-0.02,-0.04,-0.11,60.88,-76.37,14.31,0.13,-0.13,0.44,8,2
1772823626.810248,6466324,-0.04,0.16,-0.16,-158.75,-79.00,101.50,-0.81,-0.37,0.37,-0.07,-0.06,-0.05,60.88,-76.37,14.31,0.06,-0.25,0.13,7,2
1772823626.850223,6466364,-0.05,0.09,-0.12,-158.75,-79.00,101.50,0.81,-0.37,0.06,-0.03,-0.06,-0.10,60.88,-76.37,14.31,0.50,-0.62,0.00,6,2
1772823626.890602,6466405,-0.04,0.03,-0.12,-158.81,-79.00,101.50,0.94,-0.13,0.13,-0.04,-0.10,-0.09,60.81,-76.37,14.38,1.06,-0.31,-0.06,6,2
1772823626.930745,6466445,-0.01,0.04,-0.11,-158.81,-79.00,101.56,0.25,-0.13,-0.31,-0.03,-0.07,-0.10,60.81,-76.37,14.38,0.75,0.06,0.44,6,2
1772823626.970630,6466485,0.00,0.08,-0.15,-158.81,-79.00,101.56,-0.13,-1.06,-0.62,-0.03,-0.05,-0.13,60.75,-76.37,14.38,0.13,0.06,0.69,5,2
1772823627.011058,6466525,-0.01,0.09,-0.13,-158.87,-79.06,101.62,0.13,-1.50,-0.94,-0.05,-0.02,-0.13,60.75,-76.37,14.38,-0.13,-0.31,0.44,5,2
1772823627.051052,6466565,-0.04,0.06,-0.06,-158.94,-79.12,101.62,0.69,-1.75,-0.62,-0.02,-0.05,-0.15,60.75,-76.37,14.38,0.19,-0.37,0.25,4,2
1772823627.091316,6466605,-0.09,0.03,-0.03,-158.81,-79.19,101.69,0.69,-0.94,-0.06,-0.04,-0.06,-0.12,60.75,-76.37,14.38,0.62,-0.37,0.19,3,3
1772823627.131391,6466646,-0.06,0.03,-0.06,-158.81,-79.19,101.69,0.62,0.00,-0.13,0.00,-0.08,-0.08,60.75,-76.37,14.38,0.56,-0.25,0.06,3,3
1772823627.171636,6466686,-0.08,0.04,-0.08,-158.87,-79.19,101.69,0.13,0.81,-0.13,-0.04,-0.06,-0.10,60.69,-76.37,14.38,0.44,0.19,-0.06,4,4
1772823627.211665,6466726,-0.04,0.06,-0.12,-158.94,-79.12,101.69,-0.06,1.50,-0.31,-0.05,-0.04,-0.09,60.69,-76.37,14.38,0.50,0.06,-0.13,5,4
1772823627.251531,6466766,-0.02,0.05,-0.15,-159.06,-79.06,101.69,0.00,1.56,-0.31,-0.01,-0.04,-0.14,60.69,-76.37,14.38,0.56,0.44,-0.13,5,4
1772823627.291894,6466806,-0.03,0.05,-0.16,-159.19,-79.00,101.69,-0.13,1.25,0.31,-0.09,-0.07,-0.08,60.69,-76.37,14.38,0.69,0.62,0.56,5,4
1772823627.332052,6466846,0.00,0.07,-0.18,-159.25,-79.00,101.69,0.19,0.13,-0.44,-0.01,-0.02,-0.25,60.75,-76.44,14.44,0.31,1.00,0.37,4,5
1772823627.372157,6466886,0.00,0.01,-0.11,-159.25,-79.00,101.69,0.13,-0.81,-0.13,-0.04,-0.09,-0.13,60.75,-76.44,14.44,0.13,0.06,0.00,5,5
1772823627.412460,6466926,-0.07,0.03,-0.09,-159.12,-79.00,101.69,-0.13,-1.00,0.62,-0.01,-0.07,-0.14,60.75,-76.44,14.44,-0.06,0.44,0.19,7,4
1772823627.452287,6466967,-0.04,0.02,-0.08,-159.06,-79.06,101.62,-1.19,0.13,0.62,-0.04,-0.07,-0.08,60.81,-76.44,14.44,0.06,0.62,0.19,7,5
1772823627.492386,6467007,-0.06,0.08,-0.12,-159.06,-79.00,101.56,-1.44,0.75,0.06,-0.07,-0.06,-0.15,60.88,-76.44,14.44,0.25,0.50,0.13,7,5
1772823627.532802,6467047,-0.01,0.16,-0.12,-159.06,-79.00,101.50,-0.81,0.69,0.37,-0.02,-0.06,-0.10,60.88,-76.44,14.44,0.50,0.37,0.25,7,4
1772823627.573181,6467087,-0.03,0.09,-0.10,-159.06,-79.00,101.50,0.69,0.37,-0.25,-0.04,-0.07,-0.08,60.88,-76.44,14.44,0.00,0.13,-0.13,8,4
1772823627.613247,6467127,0.01,0.06,-0.12,-159.12,-79.00,101.56,0.62,0.37,-0.44,-0.02,-0.08,-0.10,60.88,-76.44,14.44,0.31,0.50,0.25,8,4
1772823627.653496,6467168,-0.03,0.05,-0.13,-159.12,-79.00,101.56,0.31,0.19,-0.44,-0.04,-0.03,-0.15,60.88,-76.44,14.44,0.31,0.56,0.37,9,4
1772823627.693473,6467208,-0.03,0.04,-0.12,-159.12,-79.00,101.56,0.06,-0.06,-0.50,-0.04,-0.05,-0.16,60.88,-76.44,14.44,0.25,0.25,0.19,10,4
1772823627.733969,6467248,-0.03,0.03,-0.08,-159.06,-79.00,101.56,0.25,-0.69,-0.25,-0.03,-0.05,-0.13,60.88,-76.44,14.44,0.19,0.00,0.25,10,4
1772823627.774375,6467288,-0.03,0.01,-0.12,-159.06,-79.00,101.56,0.31,-0.56,-0.06,-0.02,-0.05,-0.13,60.88,-76.44,14.44,0.19,-0.13,0.06,10,3
1772823627.814377,6467329,-0.07,0.01,-0.10,-159.06,-79.00,101.56,0.06,0.00,0.13,-0.04,-0.06,-0.13,60.88,-76.44,14.44,0.13,0.50,0.13,10,4
1772823627.854958,6467369,-0.03,0.05,-0.11,-159.06,-79.00,101.56,-0.56,0.19,0.31,-0.05,-0.07,-0.14,60.88,-76.44,14.44,0.13,0.19,-0.13,11,4
1772823627.894760,6467409,-0.04,0.06,-0.11,-159.06,-79.00,101.56,-0.69,0.37,0.56,-0.02,-0.05,-0.10,60.88,-76.44,14.44,0.13,-0.06,-0.13,11,4
1772823627.934807,6467449,-0.02,0.09,-0.13,-159.06,-79.00,101.56,-0.06,0.44,0.13,-0.07,-0.12,-0.11,60.88,-76.44,14.44,0.44,0.13,-0.06,11,4
1772823627.974890,6467489,0.01,0.06,-0.14,-159.06,-79.00,101.56,0.00,0.31,0.13,-0.03,-0.04,-0.18,60.88,-76.44,14.44,0.00,0.50,0.13,10,4
1772823628.015731,6467530,-0.04,0.11,-0.15,-159.06,-79.00,101.56,-0.13,-0.69,-0.06,-0.09,-0.01,-0.09,60.88,-76.44,14.44,0.13,0.37,0.19,9,4
1772823628.055644,6467570,0.00,0.00,-0.09,-159.19,-79.00,101.62,0.81,-0.88,-0.62,-0.04,-0.08,-0.17,60.88,-76.44,14.44,0.62,-0.44,-0.31,8,4
1772823628.095392,6467610,-0.06,0.00,-0.07,-159.00,-79.06,101.62,0.19,-0.69,1.06,0.00,-0.09,-0.14,60.88,-76.44,14.44,0.25,-0.13,0.00,8,4
1772823628.135371,6467650,-0.02,0.05,-0.10,-158.75,-79.06,101.56,-1.19,0.00,1.06,-0.06,-0.06,-0.13,60.88,-76.44,14.44,0.00,0.25,0.00,7,5
1772823628.175692,6467690,-0.02,0.16,-0.16,-158.62,-79.06,101.44,-2.00,0.31,0.31,-0.06,-0.07,-0.14,60.88,-76.44,14.44,0.13,0.13,0.06,6,5
1772823628.215401,6467730,0.00,0.17,-0.18,-158.56,-79.00,101.37,-0.31,0.19,0.00,-0.05,-0.03,-0.16,60.88,-76.44,14.44,0.44,0.06,0.25,5,5
1772823628.255953,6467770,-0.02,0.04,-0.13,-158.50,-79.00,101.37,1.62,-0.13,-0.44,-0.06,-0.07,-0.08,60.88,-76.44,14.44,0.50,-0.31,-0.06,4,5
1772823628.295628,6467810,0.01,0.00,-0.11,-158.62,-79.00,101.44,1.12,0.13,-0.37,-0.01,-0.09,-0.11,60.88,-76.44,14.44,0.69,0.31,0.19,3,4
1772823628.335988,6467850,-0.03,0.00,-0.13,-158.62,-78.94,101.44,-0.06,-0.06,-0.25,-0.03,-0.07,-0.11,60.88,-76.44,14.44,0.31,0.31,0.62,3,4
1772823628.376112,6467890,-0.01,0.08,-0.15,-158.62,-78.94,101.44,-0.75,-0.31,-0.37,-0.02,-0.02,-0.14,60.81,-76.44,14.44,0.00,0.06,0.44,2,4
1772823628.416041,6467930,-0.04,0.07,-0.13,-158.62,-78.94,101.44,0.37,-0.56,-0.56,-0.04,-0.04,-0.15,60.81,-76.44,14.44,0.25,0.00,0.19,2,4
1772823628.456266,6467970,-0.04,0.00,-0.06,-158.62,-78.94,101.50,0.88,-0.56,-0.19,-0.04,-0.06,-0.15,60.81,-76.44,14.44,0.25,0.13,0.19,1,3
1772823628.496261,6468010,-0.05,0.00,-0.08,-158.69,-78.94,101.50,0.19,-0.62,0.13,-0.02,-0.10,-0.13,60.81,-76.44,14.44,0.25,0.25,0.00,2,3
1772823628.536676,6468051,-0.07,0.04,-0.08,-158.69,-78.94,101.50,-0.56,-0.44,0.25,-0.03,-0.05,-0.16,60.81,-76.44,14.44,0.13,-0.19,0.06,3,4
1772823628.576730,6468091,-0.05,0.06,-0.09,-158.62,-78.94,101.50,-0.56,0.00,0.19,-0.03,-0.08,-0.12,60.81,-76.44,14.44,-0.13,-0.50,0.00,2,3
1772823628.616760,6468131,-0.05,0.10,-0.13,-158.62,-78.94,101.44,-0.56,0.25,0.06,-0.04,-0.07,-0.08,60.81,-76.44,14.44,0.00,-0.37,0.31,3,3
1772823628.656993,6468171,0.02,0.04,-0.11,-158.62,-78.87,101.44,-0.06,0.25,-0.31,-0.05,-0.06,-0.13,60.81,-76.44,14.44,-0.06,-0.44,0.00,3,3
1772823628.697168,6468211,-0.02,0.11,-0.15,-158.62,-78.87,101.44,0.25,-0.31,-0.19,-0.09,-0.04,-0.05,60.81,-76.44,14.44,0.69,-0.44,0.62,4,2
1772823628.737774,6468252,-0.01,-0.01,-0.10,-158.75,-78.87,101.50,1.12,-0.75,-1.00,-0.02,-0.08,-0.15,60.75,-76.44,14.44,-0.19,-0.62,-0.25,5,2
1772823628.777462,6468292,-0.08,0.00,-0.03,-158.75,-78.94,101.56,0.44,-1.19,0.56,0.04,-0.10,-0.11,60.69,-76.44,14.44,-1.44,0.25,-0.50,5,2
1772823628.817744,6468332,-0.10,-0.01,-0.07,-158.56,-78.94,101.50,-0.75,-0.50,0.94,-0.04,-0.09,-0.15,60.63,-76.44,14.44,0.25,-0.13,0.06,6,2
1772823628.857669,6468372,-0.06,0.09,-0.11,-158.31,-78.94,101.37,-2.06,-0.25,0.88,-0.04,-0.08,-0.09,60.63,-76.44,14.44,0.19,0.13,0.19,7,2
1772823628.897980,6468412,-0.09,0.13,-0.13,-158.19,-78.94,101.31,-0.50,-0.31,0.31,-0.09,-0.07,-0.01,60.63,-76.44,14.44,0.19,-0.31,-0.13,7,2
1772823628.938332,6468452,-0.05,0.07,-0.12,-158.19,-78.87,101.31,0.81,-0.37,0.06,-0.03,-0.08,-0.09,60.63,-76.44,14.44,0.25,-0.13,-0.19,8,1
1772823628.978151,6468492,-0.02,0.02,-0.11,-158.19,-78.87,101.37,1.19,0.00,-0.19,-0.03,-0.12,-0.11,60.63,-76.44,14.44,0.81,0.13,0.00,9,1
1772823629.018201,6468532,0.00,0.01,-0.10,-158.31,-78.87,101.44,0.69,-0.06,-0.62,-0.03,-0.06,-0.11,60.63,-76.44,14.44,0.25,0.00,0.25,10,1
1772823629.058460,6468573,-0.01,0.02,-0.13,-158.44,-78.87,101.44,0.00,-0.50,-0.75,-0.06,-0.02,-0.13,60.63,-76.44,14.44,0.13,0.50,0.44,11,1
1772823629.098730,6468613,-0.02,0.02,-0.08,-158.56,-78.94,101.50,0.44,-1.06,-0.69,-0.06,-0.04,-0.12,60.63,-76.44,14.44,-0.06,0.06,0.13,12,1
1772823629.139240,6468653,-0.04,0.00,-0.03,-158.56,-78.94,101.56,1.12,-0.56,-0.19,-0.02,-0.06,-0.12,60.63,-76.44,14.44,0.31,-0.06,-0.06,13,1
1772823629.178977,6468693,-0.08,0.00,-0.03,-158.56,-78.94,101.56,0.62,-0.88,0.37,-0.04,-0.09,-0.08,60.63,-76.44,14.44,0.69,0.25,-0.25,13,1
1772823629.219068,6468733,-0.06,-0.02,-0.05,-158.56,-78.94,101.56,0.06,0.13,0.31,-0.03,-0.09,-0.11,60.63,-76.44,14.50,0.25,0.62,-0.25,14,2
1772823629.259398,6468774,-0.05,0.00,-0.07,-158.50,-78.94,101.56,-0.56,0.81,0.69,0.00,-0.08,-0.13,60.69,-76.44,14.50,-0.37,1.25,0.00,14,2
1772823629.299393,6468814,0.00,0.03,-0.11,-158.37,-78.94,101.50,-1.31,0.31,0.69,-0.04,-0.05,-0.07,60.81,-76.44,14.50,0.31,0.37,-0.13,15,2
1772823629.339618,6468854,0.04,0.03,-0.10,-158.37,-78.94,101.44,-0.88,0.19,0.37,0.00,-0.05,-0.15,60.88,-76.44,14.50,-0.44,1.25,-0.13,15,2
1772823629.380172,6468894,-0.05,0.15,-0.13,-158.19,-78.87,101.37,-1.06,-0.37,0.75,-0.09,-0.02,-0.06,61.13,-76.50,14.50,0.50,1.19,0.69,14,1
1772823629.420769,6468935,-0.04,0.02,-0.07,-158.25,-78.94,101.37,0.19,-0.62,-1.06,-0.04,-0.08,-0.10,61.25,-76.50,14.50,-0.75,0.81,-0.50,14,2
1772823629.460986,6468975,-0.05,-0.04,-0.02,-158.31,-78.94,101.37,0.19,-0.31,0.25,-0.03,-0.12,-0.08,61.38,-76.50,14.50,-0.94,0.75,-0.62,14,2
1772823629.500616,6469015,-0.07,-0.04,-0.05,-158.12,-78.87,101.31,-1.00,0.69,1.50,0.00,-0.10,-0.12,61.44,-76.50,14.50,-0.31,0.62,0.06,13,1
1772823629.540761,6469055,-0.02,0.09,-0.13,-157.87,-78.81,101.12,-2.62,1.12,1.06,-0.02,-0.04,-0.07,61.50,-76.50,14.50,-0.37,0.88,0.56,13,1
1772823629.581294,6469095,-0.02,0.17,-0.11,-157.75,-78.81,101.06,-1.75,0.62,-0.06,-0.09,-0.04,-0.02,61.56,-76.56,14.50,-0.50,0.62,0.06,13,1
1772823629.621418,6469135,-0.02,0.14,-0.14,-157.75,-78.81,101.00,0.94,-0.19,-0.69,-0.06,-0.07,-0.12,61.63,-76.56,14.50,0.06,0.19,-0.19,13,1
1772823629.661164,6469175,-0.03,-0.02,-0.08,-157.87,-78.75,101.12,2.37,0.00,-0.19,0.00,-0.11,-0.11,61.63,-76.56,14.50,0.81,0.56,-0.44,14,1
1772823629.700909,6469215,-0.06,-0.05,-0.04,-157.94,-78.75,101.19,0.75,0.19,0.69,0.00,-0.14,-0.07,61.56,-76.56,14.56,0.75,0.50,-0.06,14,1
1772823629.741370,6469255,-0.02,0.01,-0.08,-157.87,-78.75,101.12,-1.25,0.13,0.37,-0.03,-0.12,-0.14,61.56,-76.56,14.56,-0.62,0.75,0.00,14,1
1772823629.781678,6469296,-0.04,0.13,-0.06,-157.75,-78.75,101.06,-1.44,-0.56,0.81,-0.03,-0.07,-0.11,61.63,-76.56,14.50,-1.00,0.19,0.19,14,1
1772823629.821777,6469336,-0.07,0.17,-0.05,-157.62,-78.75,101.00,-0.50,-0.31,0.31,-0.03,-0.06,-0.09,61.63,-76.56,14.50,0.31,-0.06,0.13,13,1
1772823629.861893,6469376,-0.04,0.09,-0.07,-157.62,-78.75,101.00,1.06,0.88,-0.37,-0.03,-0.06,-0.12,61.63,-76.56,14.50,0.31,0.44,0.31,12,1
1772823629.901806,6469416,-0.04,0.01,-0.06,-157.81,-78.69,101.06,1.25,0.94,-0.88,-0.04,-0.09,-0.09,61.63,-76.56,14.50,0.19,0.25,0.19,12,2
1772823629.942218,6469456,-0.03,0.01,-0.10,-158.06,-78.69,101.12,0.44,0.50,-1.19,-0.02,-0.10,-0.09,61.63,-76.56,14.50,0.13,0.13,0.62,10,2
1772823629.982424,6469497,-0.04,0.01,-0.13,-158.25,-78.69,101.19,0.00,0.13,-1.06,-0.08,-0.07,0.00,61.63,-76.56,14.50,-0.31,0.50,0.62,10,2
1772823630.022997,6469537,0.05,0.00,-0.11,-158.50,-78.69,101.19,0.37,0.44,-0.94,-0.01,-0.04,-0.13,61.63,-76.56,14.50,-0.13,0.56,0.13,9,2
1772823630.063006,6469577,-0.03,0.02,-0.13,-158.50,-78.69,101.19,0.31,-0.37,0.00,-0.06,-0.03,-0.05,61.63,-76.56,14.50,0.81,0.44,0.44,7,2
1772823630.103151,6469617,-0.04,-0.03,-0.05,-158.56,-78.69,101.25,1.19,-0.81,-0.69,-0.03,-0.08,-0.12,61.63,-76.56,14.50,0.25,0.06,-0.37,6,2
1772823630.142956,6469657,-0.05,-0.02,-0.02,-158.56,-78.75,101.31,0.25,-0.44,0.62,0.01,-0.09,-0.10,61.63,-76.56,14.50,0.25,0.25,-0.19,5,2
1772823630.183157,6469697,-0.09,-0.02,-0.02,-158.37,-78.69,101.25,-1.19,0.62,0.81,-0.04,-0.08,-0.08,61.63,-76.56,14.50,-0.13,0.37,0.00,5,3
1772823630.223103,6469737,0.00,0.11,-0.10,-158.25,-78.69,101.12,-2.56,0.81,0.69,-0.02,-0.06,-0.08,61.63,-76.56,14.50,-0.31,0.06,0.13,4,3
1772823630.263537,6469778,-0.03,0.15,-0.08,-158.12,-78.62,101.00,-1.06,0.56,0.13,-0.07,-0.05,-0.07,61.63,-76.56,14.50,0.44,-0.06,0.00,4,3
1772823630.303250,6469818,-0.03,0.06,-0.10,-158.12,-78.56,101.00,1.12,0.13,-0.37,-0.03,-0.07,-0.11,61.63,-76.56,14.50,0.31,0.31,-0.19,4,2
1772823630.343704,6469858,-0.03,-0.01,-0.07,-158.19,-78.56,101.06,1.37,-0.06,-0.19,-0.01,-0.10,-0.09,61.63,-76.56,14.50,0.69,-0.19,0.00,3,2
1772823630.384186,6469898,-0.03,-0.02,-0.05,-158.25,-78.56,101.12,0.19,-0.13,-0.50,-0.02,-0.07,-0.11,61.63,-76.56,14.50,-0.13,-0.06,0.25,4,2
1772823630.424323,6469938,-0.03,0.03,-0.11,-158.25,-78.56,101.12,-0.62,0.06,-0.62,-0.04,-0.09,-0.12,61.63,-76.56,14.50,-0.25,-0.06,0.37,4,2
1772823630.464426,6469979,-0.04,0.10,-0.09,-158.25,-78.56,101.06,0.00,-0.25,-0.50,-0.02,-0.03,-0.10,61.63,-76.56,14.50,0.00,-0.44,0.31,4,3
1772823630.504583,6470019,-0.02,0.02,-0.07,-158.37,-78.56,101.12,0.94,-0.19,-0.62,-0.01,-0.05,-0.07,61.63,-76.56,14.50,0.25,-0.31,0.19,4,3
1772823630.544479,6470059,-0.05,-0.02,-0.04,-158.44,-78.56,101.19,0.94,-0.75,-0.31,-0.01,-0.09,-0.08,61.63,-76.56,14.50,0.31,0.00,0.00,4,3
1772823630.585346,6470099,-0.06,-0.02,-0.08,-158.44,-78.56,101.19,0.19,0.06,-0.13,-0.04,-0.11,-0.09,61.63,-76.56,14.50,0.31,-0.25,0.00,5,2
1772823630.625287,6470140,-0.06,0.01,-0.06,-158.44,-78.56,101.19,-0.37,-0.06,0.44,-0.03,-0.09,-0.08,61.63,-76.56,14.50,0.25,0.06,0.13,6,3
1772823630.665584,6470180,-0.04,0.05,-0.09,-158.44,-78.56,101.19,-0.56,0.25,0.06,-0.04,-0.08,0.00,61.63,-76.56,14.50,0.19,-0.06,0.19,7,4
1772823630.705703,6470220,0.02,0.03,-0.08,-158.44,-78.56,101.19,-0.31,0.13,-0.13,-0.02,-0.05,-0.08,61.63,-76.56,14.50,-0.06,0.13,0.06,7,4
1772823630.745443,6470260,-0.05,0.10,-0.10,-158.44,-78.56,101.19,0.62,-0.13,-0.19,-0.09,-0.04,-0.05,61.63,-76.56,14.50,0.44,0.13,0.62,8,4
1772823630.786001,6470300,-0.01,-0.01,-0.04,-158.56,-78.62,101.25,1.19,-1.12,-0.88,-0.02,-0.07,-0.11,61.56,-76.62,14.50,0.06,-0.37,-0.19,8,5
1772823630.826051,6470340,0.03,-0.03,-0.04,-158.50,-78.69,101.31,0.44,-1.25,0.44,0.02,-0.10,-0.11,61.56,-76.56,14.50,0.06,-0.06,-0.13,9,5
1772823630.867185,6470381,-0.06,-0.05,-0.02,-158.37,-78.69,101.31,-0.69,-0.37,0.88,-0.01,-0.09,-0.07,61.56,-76.56,14.50,0.06,0.00,0.25,9,5
1772823630.906450,6470420,-0.06,0.08,-0.06,-158.19,-78.69,101.19,-1.56,-0.13,0.62,-0.04,-0.11,-0.04,61.56,-76.56,14.50,0.13,-0.06,0.19,9,5
1772823630.946071,6470460,-0.07,0.09,-0.07,-158.12,-78.69,101.12,-0.44,-0.06,0.25,-0.04,-0.04,0.00,61.56,-76.56,14.50,0.37,-0.25,0.13,9,5
1772823630.986265,6470501,-0.06,0.09,-0.09,-158.19,-78.69,101.19,1.06,0.00,-0.25,-0.04,-0.08,-0.08,61.56,-76.56,14.50,0.56,0.13,0.00,8,5
1772823631.026738,6470541,0.00,0.00,-0.09,-158.25,-78.69,101.25,0.94,0.31,-0.25,-0.01,-0.11,-0.05,61.50,-76.56,14.56,0.81,0.31,0.00,9,5
1772823631.067684,6470582,-0.01,-0.01,-0.11,-158.25,-78.69,101.25,0.31,-0.06,-0.50,-0.04,-0.07,-0.07,61.50,-76.56,14.56,0.13,0.37,0.37,9,5
1772823631.108364,6470622,-0.05,0.03,-0.10,-158.25,-78.69,101.25,-0.19,-0.69,-0.25,-0.04,-0.07,-0.05,61.56,-76.62,14.56,0.06,0.44,0.62,9,5
1772823631.147568,6470662,-0.03,0.02,-0.08,-158.19,-78.69,101.25,0.44,-1.00,-0.06,-0.02,-0.06,-0.05,61.63,-76.62,14.56,0.13,0.62,0.31,10,5
1772823631.188312,6470703,-0.04,-0.01,-0.06,-158.12,-78.75,101.31,0.62,-1.44,0.00,0.00,-0.07,-0.07,61.69,-76.62,14.56,0.06,0.81,0.13,9,5
1772823631.232092,6470746,-0.03,-0.03,-0.07,-158.00,-78.81,101.31,0.19,-1.00,-0.13,-0.03,-0.07,-0.09,61.81,-76.62,14.56,-0.06,0.69,-0.13,9,4
1772823631.275385,6470789,-0.06,-0.02,-0.04,-157.94,-78.81,101.31,-0.62,-0.88,0.50,-0.03,-0.07,-0.06,61.94,-76.62,14.56,-0.13,0.88,-0.13,9,4
1772823631.316078,6470830,-0.11,0.00,-0.03,-157.69,-78.81,101.19,-1.00,-0.13,1.19,-0.03,-0.06,-0.02,62.00,-76.69,14.56,0.88,0.44,-0.19,9,4
1772823631.356624,6470871,-0.01,0.04,-0.10,-157.50,-78.81,101.12,-0.25,0.50,0.75,-0.04,-0.13,0.01,62.00,-76.69,14.63,0.94,0.75,-0.44,10,4
1772823631.397265,6470911,-0.05,0.04,-0.09,-157.37,-78.81,101.12,-0.19,0.56,0.88,-0.04,-0.10,-0.04,62.13,-76.69,14.63,0.44,1.25,0.19,11,3
1772823631.438094,6470952,-0.01,0.01,-0.09,-157.31,-78.81,101.12,-0.69,-0.25,-0.25,-0.04,-0.07,-0.12,62.31,-76.69,14.63,-1.12,1.12,0.13,10,3
1772823631.479161,6470992,-0.01,0.01,-0.10,-157.25,-78.81,101.06,-1.25,-0.69,0.19,0.00,-0.09,-0.12,62.44,-76.69,14.63,-0.25,0.44,-0.31,10,3
1772823631.521149,6471033,-0.04,0.10,-0.07,-156.94,-78.81,101.00,0.31,-0.44,1.62,0.00,-0.07,-0.09,62.38,-76.69,14.63,1.94,0.50,0.06,10,2
1772823631.557973,6471072,-0.03,0.10,-0.06,-156.75,-78.81,101.00,1.44,-0.44,1.00,0.00,-0.05,-0.12,62.31,-76.69,14.69,0.31,0.62,0.00,11,2
1772823631.598687,6471113,-0.08,-0.01,-0.05,-156.69,-78.81,101.00,0.62,-1.06,-0.81,-0.04,-0.13,-0.02,62.44,-76.75,14.69,-0.25,0.19,-0.06,12,2
1772823631.639063,6471153,-0.12,0.00,-0.02,-156.81,-78.87,101.06,-0.62,-0.81,-1.00,-0.03,-0.12,-0.05,62.44,-76.75,14.69,-0.81,0.50,0.25,11,2
1772823631.679482,6471194,-0.14,0.00,-0.02,-156.87,-78.87,101.06,-0.62,0.62,-0.37,-0.03,-0.14,-0.05,62.50,-76.75,14.69,-0.44,0.56,0.31,10,2
1772823631.721050,6471234,-0.04,0.07,-0.06,-157.00,-78.81,101.06,-0.81,2.00,-0.06,-0.02,-0.04,-0.02,62.44,-76.75,14.63,0.31,0.37,0.69,9,2
1772823631.759455,6471274,0.03,0.10,-0.12,-157.25,-78.75,101.06,-0.19,2.00,-1.12,-0.04,-0.05,-0.05,62.44,-76.75,14.63,0.31,0.25,0.56,9,3
1772823631.799170,6471314,0.01,0.04,-0.11,-157.56,-78.75,101.12,1.44,0.25,-0.88,-0.02,-0.08,-0.13,62.44,-76.75,14.63,0.75,0.19,0.19,7,3
1772823631.840070,6471354,-0.02,-0.04,-0.08,-157.62,-78.81,101.19,2.12,-1.25,-0.50,-0.01,-0.05,-0.09,62.44,-76.75,14.69,0.31,0.13,0.13,7,3
1772823631.880852,6471395,-0.11,-0.07,-0.04,-157.69,-78.81,101.31,0.44,-0.62,-0.88,-0.03,-0.08,-0.05,62.44,-76.75,14.69,-0.56,0.19,0.13,7,3
1772823631.923262,6471437,-0.10,-0.03,-0.02,-157.81,-78.87,101.31,-1.12,-0.06,-0.81,-0.02,-0.09,-0.05,62.44,-76.75,14.69,-0.31,0.37,0.25,7,3
1772823631.966001,6471480,-0.08,0.00,-0.04,-157.81,-78.81,101.25,-0.69,1.06,0.56,0.00,-0.07,-0.04,62.44,-76.75,14.69,-0.06,0.31,0.19,6,3
1772823632.005501,6471520,-0.01,0.04,-0.09,-157.94,-78.81,101.25,-0.06,2.06,0.19,-0.04,-0.08,0.01,62.44,-76.75,14.69,0.25,0.31,0.00,5,3
1772823632.048441,6471563,0.01,0.02,-0.11,-158.06,-78.69,101.25,-0.19,1.37,0.19,-0.01,-0.08,-0.09,62.38,-76.75,14.69,0.31,0.19,-0.19,5,2
1772823632.089303,6471603,-0.02,0.06,-0.14,-158.12,-78.69,101.25,0.50,0.19,-0.06,-0.08,-0.04,-0.04,62.44,-76.75,14.69,0.25,0.50,0.19,5,3
1772823632.130352,6471644,0.00,-0.05,-0.07,-158.25,-78.69,101.31,0.69,-0.50,-0.69,-0.04,-0.11,-0.13,62.50,-76.75,14.69,-0.44,-0.44,-0.56,6,3
1772823632.170605,6471684,-0.06,-0.02,-0.05,-158.12,-78.75,101.31,-0.56,-1.12,1.12,0.00,-0.12,-0.04,62.50,-76.75,14.69,-0.50,-0.06,-0.25,5,3
1772823632.210316,6471725,-0.09,0.06,-0.02,-157.75,-78.75,101.19,-1.75,-0.31,1.44,-0.02,-0.11,-0.01,62.50,-76.75,14.69,0.06,-0.06,0.06,6,3
1772823632.250593,6471765,-0.07,0.17,-0.06,-157.56,-78.69,101.06,-1.62,0.19,0.50,-0.09,-0.06,-0.02,62.50,-76.75,14.69,-0.13,-0.31,0.00,7,2
1772823632.291293,6471805,-0.02,0.14,-0.11,-157.56,-78.69,101.00,0.37,0.75,-0.19,-0.03,-0.05,-0.05,62.50,-76.75,14.69,0.37,-0.75,0.00,7,2
1772823632.331793,6471846,-0.01,-0.02,-0.08,-157.75,-78.69,101.12,1.87,0.56,-0.88,-0.02,-0.09,-0.07,62.44,-76.75,14.69,0.37,-0.56,-0.37,7,3
1772823632.372657,6471887,0.00,-0.05,-0.08,-157.87,-78.69,101.19,0.88,0.56,-0.56,0.00,-0.12,-0.10,62.38,-76.75,14.69,0.50,-0.44,-0.25,8,3
1772823632.413464,6471928,-0.02,0.00,-0.09,-157.87,-78.69,101.19,-0.31,0.25,-0.37,-0.02,-0.10,-0.02,62.38,-76.75,14.69,0.19,-0.13,0.19,9,3
1772823632.452412,6471967,-0.03,0.03,-0.13,-157.87,-78.69,101.19,-0.69,-0.31,-0.19,-0.04,-0.06,-0.03,62.38,-76.75,14.69,0.25,0.00,0.37,10,2
1772823632.493980,6472008,-0.05,0.04,-0.13,-157.81,-78.69,101.19,0.19,-0.75,-0.31,-0.03,-0.06,-0.01,62.38,-76.75,14.69,0.19,-0.25,0.00,12,2
1772823632.537504,6472052,-0.04,0.00,-0.08,-157.81,-78.75,101.19,0.69,-0.81,-0.37,-0.02,-0.09,0.00,62.38,-76.75,14.69,0.19,-0.44,-0.13,12,1
1772823632.580164,6472094,-0.08,-0.03,-0.05,-157.81,-78.75,101.19,0.75,-0.06,-0.25,-0.03,-0.10,0.00,62.38,-76.75,14.69,0.37,-0.50,-0.06,12,1
1772823632.620904,6472135,-0.08,-0.02,-0.04,-157.81,-78.75,101.25,0.06,0.62,0.06,-0.01,-0.12,0.00,62.38,-76.75,14.69,0.00,-0.13,0.00,12,1
1772823632.661350,6472176,-0.02,0.02,-0.07,-157.87,-78.69,101.19,-0.62,0.81,0.25,-0.04,-0.06,0.00,62.38,-76.75,14.69,0.00,0.00,0.13,12,2
1772823632.702286,6472216,0.04,0.01,-0.14,-157.94,-78.69,101.19,-0.69,0.56,-0.06,0.02,-0.06,-0.01,62.38,-76.75,14.69,-0.13,-0.19,0.13,12,2
1772823632.742536,6472257,-0.04,0.09,-0.15,-157.94,-78.69,101.19,0.00,-0.13,0.19,-0.04,-0.07,0.01,62.38,-76.75,14.69,0.31,0.25,0.25,11,2
1772823632.783705,6472298,-0.02,-0.02,-0.13,-157.94,-78.69,101.25,0.88,-0.88,-0.37,-0.02,-0.11,-0.07,62.38,-76.75,14.69,0.44,-0.44,-0.50,11,3
1772823632.824842,6472339,-0.05,-0.02,-0.05,-157.81,-78.75,101.25,0.31,-0.81,0.75,0.03,-0.12,-0.03,62.38,-76.75,14.69,-0.06,0.06,-0.06,10,3
1772823632.868240,6472383,-0.09,-0.02,-0.03,-157.75,-78.75,101.25,-0.88,0.13,0.50,-0.03,-0.13,0.00,62.38,-76.75,14.69,0.00,0.31,0.25,9,4
1772823632.907411,6472422,-0.03,0.08,-0.09,-157.69,-78.75,101.19,-1.37,0.37,0.00,-0.02,-0.06,0.01,62.38,-76.75,14.69,0.06,0.37,0.13,8,4
1772823632.951352,6472466,-0.04,0.09,-0.10,-157.69,-78.75,101.12,0.13,0.62,-0.06,-0.04,-0.08,0.05,62.38,-76.75,14.69,0.00,-0.13,0.06,10,4
1772823632.992507,6472507,-0.04,0.00,-0.11,-157.75,-78.75,101.12,1.06,-0.13,-0.37,0.00,-0.07,-0.04,62.38,-76.75,14.69,0.62,0.31,-0.13,11,4
1772823633.032998,6472547,0.00,-0.03,-0.13,-157.75,-78.75,101.19,0.75,0.25,-0.19,-0.01,-0.12,-0.01,62.38,-76.75,14.69,0.19,0.75,0.13,11,3
1772823633.073878,6472588,-0.03,-0.04,-0.09,-157.75,-78.75,101.19,-0.37,-0.44,-0.13,-0.02,-0.08,0.00,62.50,-76.75,14.69,0.13,0.88,0.37,11,3
1772823633.114191,6472628,-0.05,0.02,-0.07,-157.75,-78.75,101.19,-0.94,-0.69,-0.37,-0.03,-0.08,-0.01,62.63,-76.75,14.69,0.13,0.94,0.37,12,3
1772823633.154111,6472668,-0.05,0.00,-0.09,-157.69,-78.75,101.19,0.06,-0.37,-0.19,-0.03,-0.04,0.00,62.75,-76.81,14.69,0.13,0.62,0.06,12,3
1772823633.194976,6472709,-0.03,-0.01,-0.05,-157.69,-78.75,101.19,0.56,-0.13,0.31,-0.02,-0.07,-0.01,62.81,-76.81,14.69,0.44,0.37,0.00,12,2
1772823633.236077,6472750,-0.03,-0.03,-0.10,-157.75,-78.75,101.19,0.62,0.06,0.37,-0.01,-0.08,-0.02,62.81,-76.81,14.75,0.50,0.81,-0.13,12,3
1772823633.279511,6472794,-0.01,-0.02,-0.11,-157.75,-78.75,101.19,-0.06,-0.06,0.50,0.02,-0.11,-0.01,62.88,-76.81,14.75,0.00,0.69,-0.37,12,3
1772823633.322104,6472836,-0.04,0.00,-0.09,-157.62,-78.75,101.19,-0.94,0.13,0.44,-0.05,-0.15,0.03,62.94,-76.81,14.75,-0.50,0.69,0.00,11,3
1772823633.362424,6472877,-0.07,0.06,-0.11,-157.56,-78.75,101.06,-1.44,-0.25,0.69,-0.03,-0.07,0.02,63.06,-76.81,14.69,-0.31,1.00,0.06,10,4
1772823633.404004,6472918,-0.03,0.12,-0.10,-157.50,-78.75,101.06,0.50,-0.13,-0.44,-0.01,-0.06,-0.02,63.19,-76.81,14.75,-0.13,0.94,-0.06,9,3
1772823633.444477,6472959,0.00,0.00,-0.06,-157.50,-78.75,101.12,1.19,-0.75,0.31,-0.01,-0.12,-0.07,63.25,-76.81,14.75,0.25,0.44,-0.37,8,5
1772823633.485383,6473000,-0.09,-0.06,-0.02,-157.37,-78.75,101.12,0.00,-0.75,0.50,-0.01,-0.14,0.00,63.25,-76.81,14.75,-0.37,0.13,-0.13,7,5
1772823633.525982,6473040,-0.09,0.06,-0.08,-157.31,-78.75,101.06,-2.00,0.56,0.44,-0.02,-0.09,0.02,63.25,-76.81,14.75,0.19,0.44,0.19,5,6
1772823633.567307,6473081,-0.07,0.12,-0.11,-157.31,-78.75,101.00,-1.00,0.94,0.00,-0.05,-0.09,-0.01,63.25,-76.81,14.75,-0.06,0.75,-0.13,5,6
1772823633.606341,6473121,-0.03,0.10,-0.12,-157.37,-78.69,100.94,0.44,1.00,0.25,0.00,-0.09,0.00,63.25,-76.87,14.75,0.50,0.62,0.06,5,5
1772823633.648766,6473163,0.00,0.00,-0.12,-157.44,-78.69,101.00,0.88,-0.06,-0.25,-0.01,-0.11,-0.02,63.25,-76.87,14.75,0.62,0.44,-0.06,6,5
1772823633.691961,6473206,0.03,0.00,-0.10,-157.44,-78.69,101.06,0.06,-0.56,-0.44,0.02,-0.09,-0.10,63.25,-76.87,14.75,0.00,0.50,0.31,6,5
1772823633.734406,6473249,-0.04,0.03,-0.09,-157.37,-78.69,101.00,-0.44,-1.06,-0.37,-0.05,-0.11,0.01,63.25,-76.87,14.75,-0.56,0.31,0.69,6,4
1772823633.775709,6473290,-0.08,0.07,-0.08,-157.37,-78.75,101.06,-0.06,-1.12,-0.69,-0.04,-0.09,0.00,63.25,-76.87,14.75,-0.13,0.37,0.50,6,4
1772823633.815869,6473330,-0.05,0.03,-0.05,-157.50,-78.81,101.12,1.06,0.00,-0.81,-0.03,-0.08,0.00,63.25,-76.87,14.75,-0.13,0.00,0.06,7,4
1772823633.856497,6473371,-0.03,-0.03,-0.06,-157.69,-78.81,101.19,1.00,0.44,-0.50,-0.02,-0.10,0.00,63.25,-76.87,14.75,0.37,0.25,0.13,7,3
1772823633.897384,6473412,-0.03,-0.03,-0.07,-157.75,-78.81,101.19,0.00,0.25,-0.19,-0.01,-0.10,-0.03,63.25,-76.87,14.75,0.19,0.13,-0.06,8,3
1772823633.938560,6473453,-0.05,-0.02,-0.11,-157.75,-78.81,101.19,-0.69,0.56,0.37,-0.01,-0.09,0.01,63.25,-76.87,14.75,0.37,0.06,0.06,10,3
1772823633.981757,6473496,-0.04,0.02,-0.13,-157.75,-78.75,101.19,-0.56,1.06,-0.06,0.00,-0.09,-0.05,63.25,-76.87,14.75,0.50,0.37,0.19,10,3
1772823634.024457,6473539,-0.01,0.05,-0.12,-157.81,-78.75,101.19,-0.37,0.62,0.00,-0.02,-0.08,0.00,63.25,-76.87,14.75,-0.19,0.56,0.31,9,3
1772823634.064514,6473579,-0.05,0.03,-0.11,-157.94,-78.75,101.19,0.69,-0.31,-1.00,-0.02,-0.06,-0.03,63.31,-76.87,14.75,-0.25,0.69,0.00,9,2
1772823634.106577,6473621,0.00,-0.04,-0.05,-158.06,-78.75,101.25,0.88,-0.56,0.31,0.01,-0.13,-0.03,63.31,-76.87,14.75,0.37,-0.31,-0.62,8,2
1772823634.147294,6473661,-0.07,-0.05,-0.03,-157.87,-78.75,101.25,-0.13,-0.13,0.75,0.00,-0.11,-0.01,63.31,-76.87,14.75,-0.13,0.37,0.00,8,3
1772823634.188020,6473702,-0.02,0.07,-0.11,-157.69,-78.75,101.12,-2.25,0.31,0.75,-0.03,-0.10,-0.03,63.31,-76.87,14.75,-0.19,0.13,0.06,9,3
1772823634.229096,6473743,-0.12,0.13,-0.12,-157.62,-78.75,101.06,-1.56,-0.19,0.06,-0.03,-0.08,0.00,63.31,-76.87,14.75,-0.44,0.00,-0.25,10,3
1772823634.270657,6473785,-0.06,0.12,-0.15,-157.62,-78.75,101.06,0.75,0.19,-0.19,-0.06,-0.10,0.07,63.31,-76.87,14.75,0.13,-0.50,-0.25,10,3
1772823634.309546,6473824,-0.03,0.00,-0.10,-157.69,-78.75,101.12,1.69,0.25,-0.37,0.00,-0.14,-0.03,63.31,-76.87,14.75,0.37,-0.31,-0.06,11,2
1772823634.353555,6473868,0.00,-0.02,-0.09,-157.69,-78.75,101.12,0.31,0.25,-0.37,-0.01,-0.11,-0.02,63.31,-76.87,14.75,0.00,-0.50,0.06,10,1
1772823634.396633,6473911,-0.04,0.03,-0.14,-157.69,-78.75,101.12,-0.62,-0.50,-0.25,-0.01,-0.11,0.02,63.31,-76.87,14.75,0.06,-0.06,0.25,10,2
1772823634.437870,6473952,-0.03,0.07,-0.13,-157.69,-78.75,101.12,0.19,-0.56,-0.56,-0.02,-0.07,0.02,63.31,-76.87,14.75,-0.13,-0.06,0.44,11,2
1772823634.478448,6473993,-0.04,0.01,-0.08,-157.69,-78.75,101.19,1.00,-0.44,-0.56,0.00,-0.10,0.02,63.31,-76.87,14.75,0.25,-0.06,0.13,11,2
1772823634.519015,6474033,-0.04,-0.04,-0.06,-157.81,-78.75,101.25,1.00,-0.37,-0.62,0.00,-0.09,0.02,63.31,-76.87,14.75,0.25,-0.37,0.06,12,2
1772823634.559298,6474074,-0.08,-0.03,-0.09,-157.81,-78.75,101.25,0.31,0.06,-0.13,-0.03,-0.11,0.04,63.31,-76.87,14.75,0.25,0.13,0.00,12,2
1772823634.600311,6474115,-0.09,0.00,-0.10,-157.81,-78.75,101.25,-0.31,0.25,0.06,-0.01,-0.09,0.03,63.31,-76.87,14.75,-0.06,0.19,0.00,13,2
1772823634.643197,6474158,-0.03,0.03,-0.13,-157.81,-78.75,101.25,-0.62,0.50,-0.06,-0.01,-0.11,0.02,63.31,-76.87,14.75,-0.06,0.06,0.19,12,2
1772823634.686577,6474201,0.01,0.02,-0.14,-157.81,-78.75,101.25,-0.06,0.06,0.06,0.00,-0.08,0.01,63.31,-76.87,14.75,-0.19,0.13,-0.06,12,2
1772823634.728273,6474243,-0.02,0.04,-0.15,-157.81,-78.75,101.25,0.69,-0.25,-0.56,-0.05,-0.06,0.03,63.31,-76.87,14.75,0.37,0.62,0.69,12,2
1772823634.769286,6474283,-0.02,-0.04,-0.05,-157.94,-78.81,101.31,0.94,-1.06,-0.37,-0.02,-0.09,0.01,63.31,-76.87,14.75,0.37,-0.69,-0.50,13,2
1772823634.810209,6474324,-0.12,-0.04,-0.02,-157.81,-78.81,101.31,0.31,-1.19,0.44,0.04,-0.11,0.01,63.31,-76.87,14.75,-0.19,-0.19,-0.19,15,2
1772823634.850919,6474365,-0.03,0.01,-0.07,-157.75,-78.81,101.31,-1.12,0.44,0.44,-0.01,-0.11,0.06,63.31,-76.87,14.75,0.19,0.31,0.13,14,2
1772823634.892026,6474406,-0.06,0.06,-0.12,-157.75,-78.81,101.25,-1.44,0.75,-0.19,-0.05,-0.08,0.02,63.31,-76.87,14.75,0.00,0.00,0.06,13,2
1772823634.935110,6474450,0.00,0.09,-0.15,-157.75,-78.81,101.19,-0.06,0.94,0.13,-0.01,-0.07,0.08,63.31,-76.87,14.75,0.31,-0.06,0.00,13,2
1772823634.978672,6474493,0.00,-0.03,-0.12,-157.81,-78.75,101.25,0.69,0.31,-0.19,-0.03,-0.12,0.07,63.25,-76.87,14.75,0.62,0.00,-0.06,12,2
1772823635.019217,6474534,0.00,-0.03,-0.15,-157.87,-78.75,101.25,-0.13,0.25,-0.19,0.01,-0.09,0.04,63.31,-76.87,14.75,0.06,0.62,0.06,11,2
1772823635.060341,6474575,0.00,0.00,-0.15,-157.87,-78.75,101.25,-0.31,-0.25,-0.25,-0.02,-0.11,0.05,63.38,-76.87,14.75,0.00,0.81,0.37,11,2
1772823635.101285,6474616,-0.03,0.00,-0.15,-157.87,-78.75,101.25,0.00,-0.56,-0.25,-0.02,-0.08,0.05,63.50,-76.87,14.75,-0.06,0.81,0.13,11,2
1772823635.142436,6474657,-0.05,-0.01,-0.10,-157.81,-78.75,101.25,0.50,-0.56,0.06,-0.01,-0.10,0.02,63.63,-76.94,14.81,0.06,0.56,0.06,9,3
1772823635.185544,6474700,-0.06,-0.03,-0.09,-157.75,-78.81,101.25,0.31,-0.69,0.13,-0.02,-0.10,0.03,63.75,-76.94,14.81,0.19,0.94,-0.19,8,3
1772823635.227652,6474742,-0.04,-0.04,-0.06,-157.75,-78.81,101.25,-0.37,-0.06,0.56,0.00,-0.11,0.02,63.88,-76.94,14.81,0.31,0.81,-0.06,8,4
1772823635.267815,6474782,0.03,-0.01,-0.11,-157.69,-78.81,101.19,-0.94,0.19,0.88,0.00,-0.12,0.03,63.94,-76.94,14.81,0.06,0.81,0.00,9,4
1772823635.310658,6474825,-0.04,0.04,-0.10,-157.44,-78.75,101.12,-1.06,-0.06,0.81,-0.03,-0.09,0.04,64.06,-76.94,14.81,-0.19,0.75,0.13,11,3
1772823635.351432,6474866,0.02,0.03,-0.12,-157.37,-78.75,101.06,-0.69,-0.19,0.50,0.02,-0.05,0.01,64.12,-77.00,14.81,-0.37,0.75,-0.06,11,4
1772823635.392204,6474907,-0.03,0.08,-0.14,-157.25,-78.75,101.06,0.31,-0.56,0.50,-0.07,-0.05,0.07,64.25,-77.00,14.81,0.44,0.94,0.50,11,4
1772823635.433635,6474948,-0.03,0.00,-0.13,-157.19,-78.81,101.06,1.00,-1.37,-0.50,-0.01,-0.09,0.01,64.37,-77.00,14.81,-0.19,0.13,-0.31,10,4
1772823635.473237,6474987,-0.05,-0.04,-0.10,-157.06,-78.87,101.12,0.25,-1.62,0.62,0.00,-0.15,0.04,64.37,-77.00,14.81,0.06,0.50,-0.13,10,4
1772823635.513084,6475027,-0.04,-0.06,-0.10,-156.81,-78.87,101.06,-0.81,-0.62,1.06,0.00,-0.10,0.08,64.37,-77.00,14.81,-0.06,0.69,0.06,9,4
1772823635.553803,6475068,0.00,0.06,-0.17,-156.50,-78.87,100.94,-1.81,-1.12,1.44,0.01,-0.05,0.05,64.50,-77.00,14.81,0.62,0.88,0.37,9,3
1772823635.597345,6475112,-0.02,0.11,-0.21,-156.12,-78.94,100.81,-0.62,-1.56,1.00,-0.03,-0.10,0.07,64.56,-77.00,14.88,0.75,-0.13,-0.06,10,4
1772823635.640553,6475155,-0.04,0.05,-0.10,-155.87,-79.00,100.87,1.44,-2.06,0.00,-0.02,-0.11,0.03,64.56,-77.00,14.88,-0.31,0.44,-0.19,9,3
1772823635.681763,6475196,-0.04,0.00,-0.07,-155.75,-79.06,100.94,0.37,-1.87,0.31,0.00,-0.10,0.05,64.56,-77.00,14.88,0.75,0.62,0.00,7,3
1772823635.722880,6475237,-0.07,-0.01,-0.07,-155.62,-79.12,100.94,-0.06,-1.12,-0.19,-0.01,-0.12,0.09,64.56,-77.00,14.88,0.00,0.44,0.37,6,3
1772823635.763303,6475278,-0.04,0.03,-0.08,-155.50,-79.19,100.94,-0.19,-1.12,0.00,-0.03,-0.06,0.02,64.62,-77.00,14.88,-0.56,0.50,0.31,6,3
1772823635.804321,6475319,-0.05,0.03,-0.09,-155.44,-79.19,100.94,-0.25,-1.12,0.00,-0.03,-0.05,0.07,64.69,-77.06,14.88,0.19,0.31,0.13,6,2
1772823635.845680,6475360,-0.01,0.07,-0.10,-155.37,-79.25,100.94,0.88,-0.62,0.19,-0.01,-0.09,0.07,64.62,-77.06,14.88,0.88,0.44,0.19,7,2
1772823635.888434,6475403,-0.01,0.07,-0.15,-155.44,-79.25,101.00,2.19,-0.50,0.50,-0.03,-0.11,0.03,64.75,-77.06,14.94,2.56,0.06,-0.50,8,2
1772823635.928287,6475443,-0.02,-0.01,-0.09,-155.44,-79.25,101.12,3.12,-1.25,0.31,-0.03,-0.17,0.06,64.75,-77.06,15.00,0.94,0.00,-0.56,10,2
1772823635.968627,6475483,-0.11,-0.09,-0.04,-155.37,-79.31,101.25,0.94,-1.00,0.06,0.00,-0.16,0.03,64.75,-77.06,15.00,-0.13,0.31,-0.19,11,2
1772823636.012558,6475527,-0.09,-0.06,-0.06,-155.31,-79.37,101.25,-1.75,0.00,-0.06,-0.04,-0.10,0.07,64.81,-77.06,15.00,0.06,0.62,0.37,10,2
1772823636.053658,6475568,0.00,0.04,-0.11,-155.25,-79.31,101.12,-1.94,0.62,-0.25,0.05,-0.04,0.01,64.87,-77.12,14.94,-0.75,0.75,0.56,10,3
1772823636.094687,6475609,-0.03,0.10,-0.13,-155.25,-79.31,101.06,-0.62,-0.06,0.31,-0.08,-0.06,0.06,65.00,-77.12,14.94,-0.31,0.37,0.94,11,3
1772823636.136039,6475650,-0.10,-0.02,-0.08,-155.25,-79.37,101.06,0.31,-1.37,-1.19,0.00,-0.10,-0.05,65.00,-77.12,14.88,-0.81,-0.19,0.37,12,4
1772823636.178237,6475692,-0.05,-0.02,-0.04,-155.37,-79.37,101.12,-0.06,-0.56,-0.19,0.04,-0.14,0.03,65.00,-77.12,14.88,-0.62,-0.31,0.25,11,4
1772823636.218287,6475733,-0.04,-0.05,-0.08,-155.31,-79.37,101.12,-1.00,0.19,0.50,0.00,-0.10,0.08,65.00,-77.12,14.88,-0.50,0.19,0.25,12,4
1772823636.261735,6475776,0.00,0.03,-0.09,-155.31,-79.37,101.06,-2.19,0.25,-0.13,-0.06,-0.09,0.09,65.06,-77.19,14.88,-1.12,0.31,-0.06,12,3
1772823636.304099,6475818,-0.09,0.08,-0.11,-155.25,-79.37,100.94,-1.25,0.50,0.19,-0.01,-0.09,0.05,65.12,-77.19,14.81,-0.37,-0.25,-0.19,12,4
1772823636.344866,6475859,-0.07,0.11,-0.13,-155.31,-79.31,100.94,0.44,1.37,0.19,-0.02,-0.13,0.08,65.06,-77.12,14.88,0.94,-0.25,-0.37,11,3
1772823636.386011,6475900,0.02,0.00,-0.13,-155.50,-79.25,100.94,1.06,2.12,-0.19,0.00,-0.14,0.04,65.00,-77.12,14.88,-0.25,-0.31,-0.44,11,4
1772823636.426750,6475941,0.00,-0.01,-0.11,-155.62,-79.25,100.94,-0.56,0.50,-0.31,-0.01,-0.10,0.04,65.00,-77.12,14.88,-0.31,-0.62,0.00,13,3
1772823636.466480,6475981,-0.06,0.17,-0.16,-155.56,-79.25,100.94,-1.25,0.25,-0.31,-0.02,-0.09,0.13,65.00,-77.12,14.88,0.31,-0.31,0.50,13,3
1772823636.507611,6476022,-0.03,0.11,-0.13,-155.75,-79.25,100.94,0.69,0.81,-1.19,-0.02,-0.09,0.10,65.00,-77.12,14.88,-0.19,-0.37,0.50,14,2
1772823636.550509,6476065,-0.02,-0.03,-0.15,-156.19,-79.25,101.06,1.81,0.62,-1.81,0.01,-0.08,0.05,65.00,-77.12,14.88,-0.19,-0.44,0.31,12,1
1772823636.593849,6476108,-0.03,-0.06,-0.13,-156.56,-79.25,101.19,1.12,0.19,-1.31,0.01,-0.10,0.04,64.87,-77.12,14.88,0.31,-0.69,0.00,12,1
1772823636.635706,6476150,-0.06,-0.05,-0.09,-156.75,-79.25,101.31,0.25,-0.13,-0.37,-0.02,-0.13,0.10,64.81,-77.12,14.81,-0.13,-0.62,-0.19,12,1
1772823636.676338,6476191,-0.09,-0.03,-0.07,-156.75,-79.25,101.25,-0.81,0.37,0.50,0.00,-0.11,0.05,64.81,-77.12,14.81,-0.06,-0.56,-0.25,13,1
1772823636.716799,6476231,-0.01,0.01,-0.14,-156.69,-79.25,101.19,-1.00,1.31,0.75,0.00,-0.13,0.11,64.81,-77.12,14.81,0.25,-0.19,-0.25,12,1
1772823636.758126,6476272,-0.01,0.08,-0.11,-156.56,-79.19,101.12,-0.62,0.94,0.69,0.00,-0.13,0.10,64.81,-77.12,14.81,-0.31,-0.19,-0.19,12,2
1772823636.800775,6476315,0.01,0.05,-0.14,-156.62,-79.19,101.12,-0.19,0.81,0.00,0.00,-0.13,0.07,64.81,-77.12,14.81,-0.56,-0.19,-0.25,11,1
1772823636.843773,6476358,-0.05,0.09,-0.17,-156.62,-79.19,101.12,0.25,-0.13,-0.31,-0.07,-0.12,0.16,64.81,-77.12,14.81,0.25,0.06,0.44,11,1
1772823636.886322,6476400,-0.01,-0.04,-0.08,-156.75,-79.19,101.19,0.62,-0.50,-0.62,0.01,-0.14,0.05,64.81,-77.12,14.81,-0.25,-0.50,-0.37,11,2
1772823636.926553,6476441,-0.06,0.00,-0.06,-156.75,-79.19,101.19,0.31,-0.69,0.62,0.04,-0.15,0.06,64.75,-77.12,14.88,-0.06,-0.37,-0.25,12,1
1772823636.967407,6476482,-0.04,0.02,-0.11,-156.69,-79.19,101.19,-0.56,0.56,0.69,0.00,-0.15,0.09,64.75,-77.12,14.88,0.00,0.31,0.06,13,1
1772823637.008580,6476523,-0.05,0.09,-0.13,-156.69,-79.12,101.12,-1.06,0.75,0.13,-0.02,-0.12,0.13,64.75,-77.12,14.88,-0.13,0.06,0.00,12,1
1772823637.050145,6476564,-0.01,0.08,-0.18,-156.69,-79.12,101.06,-0.62,1.00,-0.06,-0.01,-0.11,0.09,64.75,-77.12,14.88,0.00,-0.37,-0.06,11,2
1772823637.092778,6476607,-0.02,0.03,-0.16,-156.69,-79.12,101.06,0.88,0.56,-0.25,0.00,-0.14,0.14,64.75,-77.12,14.88,0.13,0.13,-0.19,10,2
1772823637.134726,6476649,-0.01,0.00,-0.14,-156.75,-79.12,101.12,0.69,1.00,-0.19,0.00,-0.12,0.09,64.75,-77.12,14.88,0.75,0.31,0.13,10,2
1772823637.174634,6476689,0.00,0.03,-0.16,-156.81,-79.06,101.12,0.06,0.62,-0.44,0.00,-0.12,0.10,64.75,-77.12,14.88,0.56,0.56,0.37,10,2
1772823637.217463,6476732,0.00,0.00,-0.14,-156.87,-79.06,101.12,0.00,-0.44,-0.56,-0.01,-0.11,0.09,64.87,-77.12,14.88,0.13,0.81,0.37,9,2
1772823637.258618,6476773,-0.01,-0.03,-0.16,-156.87,-79.06,101.12,0.37,-0.44,-0.37,0.01,-0.09,0.04,64.94,-77.12,14.88,-0.13,0.94,0.19,7,2
1772823637.299555,6476814,-0.03,-0.04,-0.13,-156.81,-79.12,101.12,0.06,-0.88,0.19,-0.01,-0.08,0.10,65.06,-77.12,14.88,0.25,0.81,0.00,6,3
1772823637.340650,6476855,-0.06,0.00,-0.11,-156.81,-79.12,101.12,-0.06,-0.25,0.50,-0.02,-0.14,0.09,65.19,-77.19,14.88,0.44,0.50,-0.06,4,3
1772823637.383503,6476898,-0.04,0.01,-0.11,-156.69,-79.12,101.06,-0.31,0.00,0.69,-0.02,-0.13,0.10,65.25,-77.19,14.88,0.44,0.81,0.00,4,4
1772823637.424421,6476938,-0.04,0.00,-0.13,-156.50,-79.06,101.06,-0.62,-0.19,0.69,-0.01,-0.14,0.09,65.31,-77.19,14.88,-0.06,0.37,-0.13,6,4
1772823637.467319,6476982,0.00,0.05,-0.14,-156.37,-79.06,101.00,-0.88,-0.06,0.56,-0.03,-0.13,0.14,65.37,-77.19,14.88,-0.31,0.69,0.00,7,3
1772823637.508443,6477023,0.02,0.06,-0.16,-156.31,-79.06,100.94,-0.75,0.19,0.25,0.01,-0.10,0.04,65.50,-77.19,14.88,-0.69,0.56,0.06,7,3
1772823637.549762,6477064,-0.02,0.11,-0.17,-156.31,-79.06,100.94,0.00,-0.37,0.19,-0.05,-0.08,0.16,65.56,-77.19,14.88,0.13,0.75,0.37,7,4
1772823637.591130,6477105,-0.02,0.00,-0.06,-156.31,-79.12,101.00,0.81,-1.06,-0.56,0.00,-0.11,0.05,65.69,-77.19,14.88,-0.44,0.25,-0.25,6,4
1772823637.631859,6477146,-0.04,-0.01,-0.06,-156.25,-79.12,101.00,0.44,-1.12,0.44,0.05,-0.16,0.10,65.69,-77.19,14.88,0.13,0.25,-0.06,7,5
1772823637.671642,6477186,-0.05,-0.01,-0.06,-156.06,-79.12,100.94,-0.44,0.06,0.75,0.01,-0.16,0.13,65.69,-77.19,14.88,-0.13,0.31,0.00,7,4
1772823637.714564,6477229,-0.03,0.09,-0.12,-155.94,-79.12,100.87,-1.37,0.13,0.37,-0.01,-0.10,0.15,65.69,-77.19,14.88,-0.37,0.06,0.13,8,3
1772823637.757520,6477272,-0.01,0.08,-0.16,-155.87,-79.12,100.81,-0.37,0.31,0.06,-0.06,-0.09,0.15,65.75,-77.25,14.88,-0.06,-0.31,0.06,8,4
1772823637.799462,6477314,-0.02,0.02,-0.15,-155.87,-79.12,100.87,1.00,-0.69,-0.44,0.01,-0.11,0.08,65.75,-77.25,14.88,-0.31,0.13,-0.13,8,3
1772823637.840622,6477355,-0.01,-0.02,-0.11,-155.87,-79.19,100.87,0.81,-0.25,0.00,0.01,-0.16,0.12,65.75,-77.25,14.88,0.06,0.50,0.00,7,4
1772823637.881873,6477396,-0.03,-0.01,-0.11,-155.87,-79.19,100.87,-0.37,0.13,0.06,-0.01,-0.13,0.14,65.75,-77.25,14.88,0.25,0.37,0.19,7,4
1772823637.921736,6477436,-0.01,0.05,-0.18,-155.87,-79.19,100.87,-0.56,0.25,0.25,-0.01,-0.12,0.13,65.75,-77.25,14.88,0.06,0.19,0.00,8,3
1772823637.963538,6477478,-0.02,0.05,-0.18,-155.81,-79.19,100.87,-0.13,-0.81,0.13,-0.02,-0.11,0.08,65.75,-77.25,14.88,-0.31,0.13,0.00,10,2
1772823638.006171,6477520,-0.01,0.02,-0.15,-155.75,-79.19,100.87,0.50,-0.88,0.13,0.00,-0.13,0.09,65.75,-77.25,14.88,-0.37,-0.13,-0.19,10,2
1772823638.048715,6477563,-0.05,0.00,-0.09,-155.69,-79.25,100.87,-0.37,-0.88,0.25,0.02,-0.12,0.09,65.75,-77.25,14.88,-0.19,0.31,-0.06,10,2
1772823638.090454,6477605,-0.03,0.05,-0.08,-155.56,-79.25,100.87,-0.69,-0.50,0.62,-0.03,-0.12,0.09,65.75,-77.25,14.88,0.25,0.50,0.13,10,2
1772823638.131075,6477646,-0.06,0.05,-0.07,-155.50,-79.25,100.87,-0.44,-0.06,0.31,0.00,-0.11,0.06,65.75,-77.25,14.88,-0.37,0.06,-0.50,10,3
1772823638.171835,6477686,-0.07,0.06,-0.09,-155.50,-79.25,100.87,-0.31,0.44,0.37,0.03,-0.13,0.11,65.75,-77.25,14.88,0.06,0.00,-0.13,10,3
1772823638.213142,6477728,-0.03,0.03,-0.13,-155.56,-79.25,100.87,0.19,1.50,0.06,0.03,-0.11,0.03,65.81,-77.25,14.88,0.31,0.56,0.06,11,3
1772823638.255394,6477770,0.02,0.08,-0.15,-155.69,-79.19,100.81,-0.56,0.94,0.06,0.00,-0.12,0.03,65.87,-77.25,14.88,0.25,0.62,0.69,10,3
