host_time_s,t_ms,ax1,ay1,az1,roll1,pitch1,yaw1,gx1,gy1,gz1,ax2,ay2,az2,roll2,pitch2,yaw2,gx2,gy2,gz2,emg1,emg2
1772046722.277267,4058880,0.17,-0.03,0.18,-165.19,-72.69,88.25,-0.81,-0.62,0.69,-0.08,0.06,0.03,13.50,67.75,88.56,-0.50,-0.69,-0.19,5,3
1772046722.278560,4059071,0.26,-0.04,0.12,-165.06,-72.69,88.06,-0.37,0.00,0.56,-0.04,0.04,0.06,13.50,67.75,88.56,-0.06,-0.37,0.19,4,2
1772046722.279276,4059262,0.20,-0.05,0.15,-164.69,-72.69,87.75,-1.37,-0.31,0.88,-0.06,0.03,0.04,13.50,67.75,88.56,0.19,0.31,0.13,4,2
1772046722.279949,4059453,0.18,0.15,0.20,-164.50,-72.56,87.50,0.62,1.00,0.00,-0.05,0.08,0.09,13.50,67.75,88.56,0.31,1.06,0.19,5,2
1772046722.280595,4059643,0.19,0.07,0.17,-164.37,-71.87,88.25,9.56,5.19,4.25,-0.07,0.03,0.07,13.50,67.69,88.56,0.13,-0.06,-0.13,5,2
1772046722.281103,4059834,0.27,0.00,0.11,-165.00,-70.69,90.12,11.81,4.62,2.81,-0.06,0.04,0.05,13.44,67.62,88.56,0.13,0.56,0.25,6,2
1772046722.281628,4060025,0.27,-0.21,0.07,-166.00,-70.00,92.06,2.81,1.87,1.56,-0.05,0.00,0.08,13.50,67.50,88.50,0.31,1.00,1.00,7,2
1772046722.282264,4060215,0.27,-0.13,0.09,-166.12,-69.81,92.19,0.06,-0.56,1.50,-0.07,0.03,0.08,13.44,67.37,88.50,0.06,0.13,0.13,7,2
1772046722.282870,4060406,0.25,0.00,0.13,-165.69,-69.81,91.94,-0.19,-0.69,0.94,-0.07,0.00,0.09,13.44,67.31,88.50,0.06,0.88,0.56,6,2
1772046722.283416,4060597,0.23,-0.01,0.15,-165.56,-69.81,91.94,-0.13,0.25,0.19,-0.11,0.03,0.06,13.44,67.31,88.50,0.00,-0.56,-0.44,6,2
1772046722.283943,4060788,0.29,0.00,0.08,-165.56,-69.75,91.87,0.06,0.37,-0.37,-0.09,0.04,0.05,13.38,67.44,88.56,0.13,-0.31,-0.37,6,2
1772046722.431917,4060979,0.30,0.00,0.10,-165.50,-69.75,91.75,-0.62,0.81,0.25,-0.07,0.02,0.10,13.44,67.50,88.56,-0.06,-0.31,-0.19,5,2
1772046722.622448,4061169,0.27,-0.03,0.09,-165.56,-69.69,91.75,-0.31,-0.25,0.00,-0.06,0.03,0.08,13.44,67.50,88.56,-0.13,-0.13,0.13,5,2
1772046722.813220,4061360,0.30,0.00,0.12,-165.44,-69.75,91.62,-0.62,-0.31,0.44,-0.05,0.00,0.08,13.44,67.56,88.56,-0.50,-0.31,0.06,4,3
1772046723.003671,4061551,0.23,-0.06,0.13,-165.44,-69.75,91.69,-0.75,0.62,0.06,-0.06,0.03,0.05,13.44,67.56,88.56,-0.19,0.62,0.37,4,2
1772046723.194550,4061741,0.28,-0.05,0.09,-165.44,-69.69,91.62,-0.44,0.13,-0.31,-0.06,0.00,0.09,13.44,67.56,88.56,0.13,-0.62,-0.06,3,2
1772046723.385450,4061932,0.23,-0.04,0.12,-165.31,-69.81,91.56,0.19,-1.00,0.75,-0.02,0.02,0.09,13.44,67.56,88.56,0.00,-0.44,-0.06,2,2
1772046723.575849,4062123,0.26,-0.15,0.10,-165.31,-69.81,91.69,0.88,-0.69,-0.25,-0.10,0.05,0.08,13.44,67.50,88.56,0.13,1.12,0.50,2,2
1772046723.766320,4062313,0.26,-0.02,0.12,-165.25,-69.87,91.62,0.50,0.50,-0.31,-0.09,0.02,0.06,13.38,67.37,88.56,0.00,0.50,0.25,2,2
1772046723.957332,4062504,0.24,-0.11,0.15,-165.31,-69.81,91.62,0.13,-0.31,-0.06,-0.08,0.00,0.10,13.38,67.31,88.56,0.37,0.31,0.31,2,2
1772046724.147615,4062694,0.14,-0.17,0.15,-165.19,-69.50,91.19,-3.37,4.75,1.37,-0.10,0.05,0.08,13.31,67.31,88.44,2.37,2.87,1.62,1,2
1772046724.338611,4062886,0.15,0.04,0.27,-164.12,-67.94,89.19,-3.69,13.00,5.31,-0.02,-0.11,0.20,13.56,66.44,87.62,4.81,7.69,5.25,2,2
1772046724.529456,4063076,0.75,-0.06,-0.25,-163.69,-64.69,87.50,1.06,17.62,3.69,0.02,0.19,-0.36,14.00,66.25,86.75,2.06,-9.75,-0.31,11,2
1772046724.720248,4063267,0.48,-0.56,0.07,-162.75,-63.81,85.56,-22.50,-20.37,-0.62,-0.03,0.05,-0.23,14.75,66.31,86.19,-1.69,10.63,4.06,14,2
1772046724.909912,4063457,-0.19,0.56,0.62,-154.12,-69.00,78.37,-21.87,-21.06,-1.44,-0.09,0.06,0.12,14.06,64.87,86.81,2.25,1.87,-6.37,14,2
1772046725.100516,4063648,0.30,0.01,0.17,-148.19,-70.50,76.00,1.62,3.94,1.81,-0.12,0.09,0.17,11.31,64.56,87.31,5.44,0.31,-5.44,14,3
1772046725.292535,4063839,0.38,0.22,0.26,-148.19,-70.25,75.81,-2.94,-1.62,3.31,-0.19,0.32,-0.25,8.94,64.37,87.37,-2.50,-0.81,-4.94,15,4
1772046725.482674,4064030,0.00,0.81,0.71,-147.75,-69.56,77.31,47.44,18.69,9.44,0.00,0.21,-0.15,7.75,63.81,87.31,0.00,3.69,-1.94,15,3
1772046725.673256,4064220,0.49,-0.31,-0.04,-154.56,-65.94,85.12,16.50,12.75,-3.25,-0.21,0.14,0.00,7.37,62.81,88.00,-1.62,1.44,0.31,15,3
1772046725.863239,4064410,0.46,-0.18,0.03,-160.44,-64.62,88.62,7.37,4.81,-5.44,-0.12,-0.04,0.00,8.00,62.44,88.12,-2.75,1.12,-0.56,16,3
1772046726.054974,4064602,0.31,-0.20,0.10,-163.75,-64.56,91.00,-0.06,-1.00,-4.19,-0.15,0.04,-0.01,8.13,62.44,88.31,0.37,-1.19,0.00,16,3
1772046726.246226,4064793,0.33,0.00,0.09,-164.50,-64.62,91.25,2.75,-0.62,-0.81,-0.09,-0.01,0.05,8.38,62.56,88.50,-0.62,-0.75,-1.69,17,3
1772046726.436726,4064983,0.24,-0.20,0.13,-165.69,-64.94,92.69,2.44,-2.12,-2.25,-0.10,0.07,-0.12,7.37,62.88,89.00,1.56,0.13,-2.75,8,3
1772046726.627300,4065174,0.24,-0.02,0.23,-165.50,-65.56,93.06,2.00,-1.75,0.13,-0.02,-0.01,-0.02,7.00,62.81,89.19,-0.88,-2.75,-1.00,5,4
1772046726.817524,4065364,0.39,-0.04,0.16,-166.31,-65.62,93.94,2.87,-0.56,1.00,-0.12,0.06,-0.02,7.06,62.94,89.25,-0.31,0.62,0.31,5,4
1772046727.008396,4065555,0.33,-0.07,0.11,-166.44,-65.81,94.25,-0.37,-1.00,0.00,-0.04,-0.05,0.05,7.50,62.88,89.19,-0.94,-0.44,1.31,5,3
1772046727.199219,4065746,0.25,-0.09,0.17,-166.25,-66.19,94.31,0.13,-3.12,0.06,-0.04,0.00,0.02,8.00,62.94,89.06,-0.25,0.13,0.94,4,2
1772046727.390111,4065937,0.34,-0.19,0.11,-165.81,-66.62,94.06,-3.94,-2.87,1.06,-0.03,-0.06,0.08,8.13,63.00,88.94,0.44,0.88,0.75,4,2
1772046727.580690,4066127,0.68,-0.26,0.19,-164.50,-67.50,91.37,-36.56,-14.88,-7.37,-0.13,0.03,-0.04,8.19,63.13,89.00,-0.62,-3.00,0.00,3,2
1772046727.771037,4066318,0.25,0.30,0.25,-160.69,-70.06,84.94,-13.63,-6.50,-4.81,-0.04,0.00,-0.03,8.38,63.38,88.94,0.19,-0.75,-0.37,3,2
1772046727.962105,4066509,0.14,0.07,0.22,-157.50,-71.25,83.44,0.62,-2.75,3.75,-0.06,0.00,-0.04,8.44,63.56,89.00,-0.62,-0.81,-0.13,3,3
1772046728.153112,4066700,0.22,-0.08,0.17,-155.62,-71.37,83.50,2.00,-1.69,2.50,-0.08,0.00,0.06,8.44,63.56,89.00,-0.06,-0.19,0.00,2,2
1772046728.343300,4066890,0.33,0.03,0.09,-155.25,-71.31,83.31,0.13,1.56,1.06,-0.04,-0.04,0.01,8.44,63.56,89.00,0.25,0.50,0.19,2,3
1772046728.533932,4067081,0.23,-0.05,0.15,-154.75,-71.19,83.37,1.50,-0.75,1.69,-0.11,0.01,-0.01,8.44,63.56,89.00,0.06,-1.31,-0.25,2,2
1772046728.723658,4067270,0.21,-0.01,0.25,-154.44,-71.19,83.25,-0.06,1.31,1.44,0.01,-0.02,0.00,8.63,63.56,88.75,-0.81,-1.12,1.50,3,3
1772046728.914966,4067462,0.09,0.71,0.19,-155.37,-70.12,83.37,18.87,6.81,3.62,-0.03,-0.02,-0.01,8.81,63.63,88.31,4.44,-0.88,2.50,3,3
1772046729.106256,4067653,0.48,-0.60,0.03,-159.44,-68.12,89.81,23.75,7.19,3.56,-0.05,0.06,-0.01,9.00,63.63,87.69,-1.31,1.75,0.06,3,3
1772046729.297149,4067844,0.37,-0.07,0.03,-162.50,-67.50,92.37,1.50,5.25,-1.94,0.04,-0.03,0.10,9.06,63.38,87.69,-1.19,-0.69,0.06,4,3
1772046729.487414,4068034,0.43,-0.14,0.03,-163.69,-66.87,92.69,-2.62,-2.06,-1.06,-0.03,-0.08,0.06,9.50,63.44,87.56,0.25,0.81,0.56,5,3
1772046729.678073,4068225,0.45,-0.59,0.06,-163.37,-67.44,91.69,-16.50,-5.06,-2.06,-0.06,0.00,0.01,9.31,63.56,87.69,-0.06,-1.31,-1.00,5,3
1772046729.869191,4068416,0.16,0.37,0.26,-160.56,-69.44,85.87,-26.25,-8.06,-6.81,-0.03,-0.04,0.07,9.19,63.75,87.69,0.37,-0.31,-0.75,5,3
1772046730.060136,4068607,0.30,0.22,0.22,-156.50,-70.44,82.25,-3.37,-4.81,0.88,-0.09,0.07,0.00,9.13,63.94,87.81,-0.25,-0.81,-0.37,5,3
1772046730.250524,4068797,0.22,0.13,0.17,-154.81,-71.00,81.81,0.44,0.37,-0.25,-0.07,0.00,0.01,9.19,63.94,87.81,-0.88,-0.44,-0.06,6,3
1772046730.440813,4068988,0.20,0.36,0.32,-156.06,-70.25,83.87,36.19,11.94,10.63,-0.05,-0.01,-0.07,9.19,63.88,87.87,-1.00,0.50,-1.00,5,4
1772046730.631329,4069178,0.32,-0.41,0.01,-160.06,-68.62,90.19,11.81,4.62,-0.31,-0.10,-0.04,0.07,9.31,63.81,88.00,-0.44,0.69,1.12,5,4
1772046730.822721,4069369,0.40,-0.09,0.06,-163.06,-68.06,91.94,2.50,2.69,-1.06,-0.04,0.01,-0.01,9.50,63.69,88.00,-1.25,0.50,0.13,6,4
1772046731.013414,4069560,0.26,-0.10,0.08,-163.87,-67.94,92.50,0.94,1.19,-1.94,-0.05,0.00,-0.04,9.56,63.50,88.00,-0.94,1.25,0.56,5,4
1772046731.204085,4069751,0.27,-0.05,0.08,-164.75,-67.81,92.87,0.25,0.00,-1.19,-0.06,-0.02,0.12,9.75,63.25,88.06,0.56,1.19,0.56,5,4
1772046731.394397,4069941,0.29,0.00,0.04,-165.31,-67.69,93.06,-0.06,1.44,-0.94,-0.04,0.03,-0.03,9.88,63.31,88.00,0.00,-0.37,0.06,3,4
1772046731.585714,4070132,0.27,-0.05,0.09,-166.00,-67.69,93.50,-0.19,-0.50,-0.56,-0.02,-0.03,0.02,9.94,63.38,88.06,-0.50,-0.81,-0.25,4,4
1772046731.776200,4070323,0.29,-0.16,0.06,-166.00,-67.69,93.50,-0.94,-0.50,0.00,-0.09,0.00,0.03,10.00,63.44,88.06,-0.19,-0.44,-0.06,4,4
1772046731.967246,4070514,0.29,-0.06,0.08,-165.06,-67.87,92.75,-4.00,-1.56,1.06,-0.09,-0.03,0.02,9.94,63.56,88.06,0.69,-0.50,0.00,5,4
1772046732.157701,4070704,0.56,-0.43,0.02,-163.94,-68.31,91.31,-17.31,-8.19,1.19,-0.09,0.01,0.08,9.88,63.63,88.06,-0.13,-0.25,-0.19,5,4
1772046732.347573,4070895,0.12,0.19,0.24,-158.62,-70.25,85.50,-24.94,-7.81,-5.37,-0.04,0.01,0.00,9.81,63.81,88.06,0.13,-0.50,0.13,5,3
1772046732.537972,4071085,0.10,0.08,0.30,-154.12,-71.31,82.06,2.31,-2.44,2.56,-0.10,0.03,0.03,9.75,63.88,88.00,-0.94,0.19,-0.44,5,3
1772046732.729355,4071276,0.47,0.05,0.15,-156.37,-69.94,84.12,28.06,14.81,5.19,-0.12,0.02,-0.02,9.75,63.81,88.00,-2.00,0.37,-1.19,5,3
1772046732.920775,4071467,0.32,-0.26,-0.02,-161.00,-68.25,89.00,12.38,4.12,-1.69,-0.09,-0.04,0.07,9.94,63.69,88.06,-0.56,0.06,0.31,5,3
1772046733.110958,4071658,0.33,-0.21,0.02,-164.56,-67.87,91.62,1.87,0.88,-1.37,-0.06,-0.02,0.02,9.94,63.69,88.06,0.13,0.00,0.37,6,3
1772046733.302271,4071849,0.31,-0.09,0.12,-165.06,-67.94,92.06,0.75,-0.69,-0.19,-0.04,-0.01,0.05,9.94,63.63,88.06,-0.31,-0.56,-0.44,6,3
1772046733.492346,4072039,0.29,-0.02,0.10,-165.12,-67.87,92.19,-0.94,1.00,0.13,0.02,-0.06,0.14,9.94,63.56,88.06,0.56,1.94,0.50,6,3
1772046733.683290,4072230,0.30,-0.06,0.05,-165.31,-67.75,92.19,0.06,0.19,-0.75,-0.03,-0.03,0.02,9.94,63.63,88.06,-0.06,0.00,0.06,6,3
1772046733.874364,4072421,0.31,-0.10,0.12,-165.50,-67.81,92.31,0.13,-0.44,0.62,-0.21,0.02,-0.06,9.88,63.75,88.12,-0.44,-1.56,-0.94,5,3
1772046734.064935,4072612,0.29,-0.09,0.12,-165.44,-67.81,92.31,-0.31,-0.56,1.00,-0.05,0.00,0.06,9.81,63.81,88.19,-0.50,-0.44,-0.44,5,3
1772046734.255504,4072802,0.31,-0.05,0.08,-165.19,-67.81,92.00,-0.25,-0.06,0.50,-0.03,-0.02,0.05,9.81,63.81,88.19,-0.50,0.13,-0.13,5,3
1772046734.446181,4072993,0.29,-0.08,0.12,-165.12,-67.94,92.06,0.00,-1.06,0.13,-0.12,0.00,0.07,9.81,63.81,88.19,-0.13,0.37,-0.13,5,3
1772046734.636624,4073184,0.29,0.00,0.09,-165.00,-68.00,91.94,0.25,-0.56,-0.69,-0.06,0.01,0.00,9.81,63.88,88.19,0.00,0.19,0.06,4,3
1772046734.827616,4073375,0.27,0.00,0.09,-164.69,-68.06,91.81,-0.88,0.13,0.25,-0.09,-0.01,0.04,9.81,63.81,88.19,0.13,-0.50,-0.13,5,3
1772046735.018509,4073565,0.29,-0.05,0.10,-164.50,-68.12,91.62,-0.69,-1.12,0.50,-0.07,0.02,0.02,9.81,63.81,88.19,-0.06,-0.56,-0.06,5,3
1772046735.208553,4073755,0.28,0.01,0.12,-163.81,-68.37,90.94,-5.00,-0.56,-1.44,-0.08,0.02,-0.05,9.81,63.81,88.19,0.25,-2.12,-0.44,5,3
1772046735.399616,4073947,0.24,0.02,0.14,-163.44,-68.44,90.75,-0.19,0.19,-0.37,-0.08,-0.04,0.05,9.81,63.75,88.12,0.06,-0.19,0.13,4,3
1772046735.590604,4074137,0.32,-0.08,0.04,-163.56,-68.31,90.69,0.19,0.13,-0.62,-0.06,-0.06,0.10,9.81,63.81,88.12,0.00,-0.06,-0.13,6,3
1772046735.781359,4074328,0.36,-0.27,0.07,-163.44,-68.44,90.44,-8.81,-2.56,-2.06,-0.11,0.00,0.08,9.81,63.88,88.12,0.50,-0.31,0.13,5,3
1772046735.971791,4074519,0.22,0.10,0.19,-162.31,-69.44,87.37,-16.50,-4.37,-4.50,-0.09,0.00,0.01,9.88,63.94,88.12,0.13,-0.62,0.00,6,3
1772046736.161597,4074709,0.22,0.01,0.16,-160.50,-70.06,85.50,-0.19,-2.19,2.19,-0.08,0.00,0.04,9.88,63.94,88.12,0.06,0.25,0.00,6,3
1772046736.352829,4074900,0.24,-0.02,0.13,-159.69,-70.25,85.19,-0.56,-0.94,0.81,-0.10,-0.04,0.05,9.81,63.94,88.12,-0.25,0.00,0.00,7,3
1772046736.543618,4075091,0.19,0.07,0.20,-158.75,-70.31,84.69,0.94,-0.37,-0.19,-0.10,0.00,0.05,9.88,64.06,88.12,0.50,0.62,0.44,7,3
1772046736.734406,4075282,0.41,-0.20,0.12,-159.75,-69.25,87.81,23.31,6.56,5.94,-0.05,-0.01,0.00,9.94,64.00,88.19,0.37,0.13,1.00,8,3
1772046736.925249,4075472,0.26,-0.13,0.09,-163.31,-68.56,91.00,3.69,3.37,-2.37,-0.05,-0.03,0.11,10.06,63.94,88.19,0.00,0.88,0.37,9,3
1772046737.115637,4075663,0.43,-0.12,0.04,-164.69,-68.06,91.62,-1.50,1.25,-0.06,-0.05,0.00,-0.02,10.06,63.88,88.19,0.25,-1.50,-0.50,9,3
1772046737.305915,4075853,0.22,0.05,0.11,-164.25,-68.25,91.12,-1.69,-1.00,0.50,-0.08,-0.03,0.11,10.00,63.88,88.12,-0.13,0.56,0.13,9,3
1772046737.497376,4076044,0.33,-0.04,0.08,-163.94,-68.25,90.81,-2.19,-0.88,0.25,-0.09,0.00,0.06,10.00,63.88,88.12,0.06,-0.37,-0.06,7,2
1772046737.688409,4076235,0.31,-0.09,0.08,-162.94,-68.87,89.12,-19.12,-7.19,-4.75,-0.12,0.03,0.00,10.00,64.00,88.12,0.06,-2.06,-0.81,7,2
1772046737.879209,4076426,0.19,0.17,0.20,-161.06,-70.00,85.81,-7.37,-4.31,-0.75,-0.10,0.04,0.10,9.88,64.12,88.25,-0.13,-0.19,-0.44,6,2
1772046738.069736,4076617,0.08,-0.03,0.19,-159.50,-70.25,84.94,-0.06,1.87,-0.62,-0.09,0.07,0.09,10.13,64.25,88.00,-0.37,-2.75,0.75,6,2
1772046738.259709,4076807,0.41,-0.05,0.13,-160.37,-70.00,84.87,-3.06,-1.50,-2.25,-0.04,-0.07,-0.01,10.63,64.62,87.44,2.12,0.25,1.50,6,2
1772046738.450688,4076998,0.11,-0.03,0.22,-159.69,-70.50,84.75,-0.50,0.25,2.00,-0.16,0.05,0.11,10.06,64.75,87.44,2.50,1.12,0.00,6,2
1772046738.641849,4077189,0.34,0.81,0.16,-159.56,-69.94,84.25,12.13,8.31,4.69,-0.12,0.16,-0.04,10.06,64.56,87.62,-1.62,-0.62,-1.44,4,2
1772046738.832658,4077380,0.30,-0.29,0.05,-162.06,-68.75,88.19,9.63,7.69,-0.62,-0.08,-0.03,0.01,10.25,64.19,87.25,-0.69,0.25,0.94,4,2
1772046739.022641,4077570,0.34,-0.08,0.05,-164.50,-68.06,89.94,5.12,0.62,0.69,-0.12,0.07,0.00,10.44,64.06,87.31,-0.31,-0.37,0.19,4,2
1772046739.213756,4077761,0.30,-0.11,0.10,-164.75,-68.00,90.62,-0.69,-0.75,-0.25,-0.10,-0.02,0.06,10.50,64.00,87.25,-0.50,-0.44,0.31,4,2
1772046739.404747,4077952,0.26,-0.17,0.09,-164.69,-68.06,90.62,-0.62,-0.13,0.19,-0.08,0.00,0.05,10.63,64.00,87.25,0.31,0.13,0.25,4,2
1772046739.595909,4078143,0.25,-0.09,0.05,-163.62,-68.56,88.87,-21.00,-5.69,-4.31,-0.12,-0.03,0.07,10.63,64.06,87.25,0.44,-0.75,-0.13,4,2
1772046739.786443,4078333,0.26,0.27,0.17,-161.31,-69.37,85.31,-4.94,-0.81,0.19,-0.06,0.07,-0.02,10.56,64.25,87.19,0.62,-0.37,-0.25,5,2
1772046739.976999,4078524,0.16,0.07,0.19,-160.37,-69.50,84.94,0.06,1.25,0.13,-0.09,0.00,0.00,10.56,64.25,87.19,-0.88,-0.31,-0.31,5,2
1772046740.167056,4078714,0.37,-0.14,0.11,-160.75,-68.69,86.69,16.62,4.19,4.81,-0.08,0.03,-0.01,10.56,64.19,87.31,-0.50,0.50,0.06,4,3
1772046740.358302,4078906,0.30,-0.18,0.09,-162.75,-68.06,89.12,2.69,2.31,0.06,-0.13,0.00,0.00,10.81,64.00,87.25,-0.37,-0.25,0.19,4,2
1772046740.549182,4079096,0.37,-0.07,0.12,-163.44,-67.69,89.56,2.12,1.37,0.94,-0.02,-0.01,0.04,11.06,63.75,87.12,-0.88,1.69,1.19,4,2
1772046740.739788,4079287,0.32,-0.07,0.11,-163.87,-67.50,89.94,1.31,1.44,-0.50,-0.09,0.02,0.03,11.25,63.63,87.25,-1.69,0.88,0.25,4,2
1772046740.930062,4079477,0.32,-0.19,0.03,-164.81,-67.37,90.56,-0.44,0.44,-1.81,-0.06,-0.02,0.09,11.31,63.56,87.25,0.19,0.75,0.19,4,2
1772046741.120460,4079668,0.24,-0.07,0.05,-164.87,-67.44,90.44,-1.44,-1.12,0.37,-0.10,0.06,-0.01,11.13,63.63,87.31,0.37,0.81,-0.56,3,2
1772046741.311773,4079859,0.26,-0.01,0.10,-164.25,-67.56,90.06,-1.75,0.13,0.62,-0.07,0.00,0.08,11.00,63.56,87.31,0.13,-0.13,-0.13,4,2
1772046741.502752,4080050,0.33,-0.11,0.08,-164.19,-67.56,90.00,0.37,0.06,-0.31,-0.04,0.02,0.02,11.00,63.56,87.31,-0.13,-0.19,-0.06,4,2
1772046741.693464,4080241,0.32,-0.09,0.07,-163.87,-67.62,89.87,-1.19,-0.69,0.62,-0.03,-0.03,0.10,11.00,63.63,87.31,0.62,1.62,0.69,4,2
1772046741.883512,4080431,0.41,-0.30,0.10,-163.31,-68.00,89.19,-9.50,-4.44,-0.50,-0.06,0.04,0.03,10.94,63.75,87.37,0.25,-0.06,-0.06,4,2
1772046742.073718,4080621,0.20,0.12,0.17,-160.87,-69.06,85.87,-13.75,-3.87,-3.44,-0.05,0.03,0.04,10.81,63.81,87.37,0.25,0.31,-0.19,4,2
1772046742.265341,4080813,0.24,-0.02,0.18,-158.87,-69.62,84.12,-1.69,-2.87,1.94,-0.06,0.04,0.10,10.75,63.88,87.37,0.56,0.44,-0.19,3,2
1772046742.456392,4081004,0.29,0.09,0.12,-157.87,-69.75,83.44,-0.37,0.37,-0.50,-0.04,0.08,-0.01,10.75,63.88,87.37,-0.37,0.37,-0.25,4,3
1772046742.646957,4081194,0.14,0.14,0.16,-158.12,-69.62,83.69,4.25,4.44,0.31,-0.07,0.02,0.08,10.81,63.81,87.37,-0.37,0.50,0.25,4,3
1772046742.837034,4081384,0.34,-0.19,0.08,-160.56,-68.56,85.81,7.94,3.87,-0.81,-0.02,-0.03,0.03,10.94,63.69,87.31,0.50,0.56,0.56,5,3
1772046743.027227,4081575,0.32,-0.11,0.09,-162.44,-68.19,87.25,2.94,2.12,0.62,0.00,0.00,0.03,10.94,63.63,87.37,-0.06,-0.75,-0.13,5,3
1772046743.218597,4081766,0.29,-0.08,0.10,-162.94,-67.87,87.81,1.50,1.19,0.62,-0.05,0.00,0.08,10.94,63.63,87.37,0.50,0.69,0.00,5,3
1772046743.410004,4081957,0.39,-0.16,0.04,-163.19,-67.69,87.87,-2.06,-0.81,0.19,-0.03,0.02,0.02,10.94,63.63,87.37,0.13,-0.44,-0.06,5,3
1772046743.600907,4082148,0.25,0.03,0.15,-162.19,-68.37,86.50,-5.81,-3.37,-0.13,-0.07,0.05,0.02,10.81,63.75,87.37,0.00,-1.00,-0.56,5,2
1772046743.791689,4082339,0.27,-0.02,0.20,-160.94,-68.69,85.69,-1.06,-1.31,1.62,-0.08,0.09,0.00,10.63,63.88,87.56,-0.88,0.13,-1.31,5,3
1772046743.981310,4082529,0.26,-0.11,0.13,-160.69,-68.44,86.06,9.00,4.50,1.81,-0.07,0.07,0.01,10.63,63.81,87.56,-0.56,-0.31,0.19,5,2
1772046744.172742,4082720,0.26,-0.09,0.13,-161.87,-68.06,87.06,2.25,0.06,-0.25,-0.12,0.08,0.10,10.63,63.81,87.56,-0.31,0.81,-0.19,5,2
1772046744.363582,4082911,0.38,0.00,0.04,-162.19,-67.87,87.25,0.69,1.06,-0.94,-0.08,0.07,0.04,10.63,63.88,87.56,0.50,0.31,-0.06,5,2
1772046744.554437,4083102,0.25,-0.05,0.11,-162.50,-67.87,87.56,-0.75,-0.31,0.44,-0.12,-0.02,0.11,10.56,63.69,87.44,0.88,1.87,1.44,5,2
1772046744.744417,4083291,0.29,-0.21,0.12,-162.44,-67.87,87.56,1.37,-2.00,1.25,-0.04,0.11,-0.04,10.56,63.56,87.44,-0.13,-0.37,-0.06,5,2
1772046744.934457,4083482,0.31,-0.21,0.07,-161.06,-68.00,86.69,-2.00,-0.31,-0.31,-0.07,0.00,0.11,10.69,63.50,87.37,-0.50,-0.56,0.19,5,2
1772046745.125933,4083673,0.32,0.08,0.21,-160.12,-68.25,85.31,0.62,-1.62,2.31,-0.08,0.08,0.07,10.56,63.50,87.44,0.56,2.25,-0.13,4,2
1772046745.317218,4083864,0.29,-0.02,0.06,-160.31,-68.06,86.06,7.94,4.00,1.00,-0.04,0.04,0.08,10.56,63.50,87.37,-0.50,0.31,0.06,4,2
1772046745.508216,4084055,0.30,-0.12,0.08,-161.94,-67.81,87.31,0.62,-1.69,0.31,-0.07,0.00,0.18,10.56,63.56,87.44,-0.19,0.37,-0.13,4,2
1772046745.697737,4084245,0.33,-0.20,0.12,-162.31,-67.81,87.56,2.00,1.12,-1.00,-0.15,0.08,0.00,10.50,63.69,87.44,-0.06,-1.00,0.06,3,2
1772046745.887798,4084435,0.28,-0.02,0.13,-162.31,-67.81,87.56,0.25,-1.81,0.19,-0.10,-0.01,0.14,10.50,63.69,87.44,-0.25,1.12,-0.31,3,1
1772046746.079590,4084627,0.38,0.00,0.10,-162.19,-67.81,87.44,-1.37,-0.50,0.13,-0.12,0.00,0.03,10.44,63.69,87.44,0.75,-0.50,0.13,4,2
1772046746.270573,4084818,0.24,-0.03,0.10,-162.19,-67.81,87.37,-0.62,-0.56,0.00,0.00,-0.02,0.07,10.44,63.69,87.37,1.69,0.50,0.75,4,2
1772046746.462015,4085009,0.28,-0.05,0.09,-162.12,-67.87,87.37,-0.62,-0.44,-0.06,-0.11,0.05,0.08,10.44,63.69,87.37,-0.44,-0.37,-0.31,4,2
1772046746.653309,4085200,0.32,-0.04,0.11,-162.12,-67.81,87.31,-0.13,0.62,-1.12,-0.02,0.07,-0.02,10.44,63.63,87.37,-0.44,-0.37,-0.56,4,2
1772046746.844318,4085392,0.25,-0.08,0.14,-161.94,-67.87,87.25,-1.12,0.37,0.00,-0.11,0.05,0.01,10.44,63.56,87.37,0.00,0.75,0.00,4,2
1772046747.035641,4085583,0.39,-0.18,0.11,-161.94,-67.94,87.06,-5.31,-2.56,0.00,-0.05,0.03,0.09,10.44,63.63,87.37,0.19,-1.00,-0.50,4,2
1772046747.225937,4085773,0.26,-0.01,0.18,-160.81,-68.62,85.62,-5.00,-2.87,-0.44,-0.10,0.07,0.05,10.44,63.69,87.37,-0.56,-3.62,-0.56,3,2
1772046747.416352,4085964,0.26,-0.05,0.10,-160.19,-68.94,84.87,-2.19,-1.25,-0.81,-0.06,0.05,0.09,10.50,64.00,87.19,0.37,-1.69,0.44,4,3
1772046747.607291,4086154,0.17,0.21,0.25,-159.87,-69.25,84.75,2.31,-0.37,0.06,-0.07,0.06,-0.07,10.38,64.31,87.00,0.50,-0.75,-0.44,3,3
1772046747.796401,4086344,0.18,-0.09,0.16,-159.62,-69.06,85.87,3.31,3.56,2.06,-0.07,0.08,0.17,10.19,64.06,87.19,0.50,1.44,-0.19,3,3
1772046747.987396,4086535,0.42,0.00,0.00,-160.37,-68.37,85.94,0.56,3.06,-1.06,-0.06,0.03,0.00,10.38,64.06,87.06,-0.06,0.13,1.00,3,2
1772046748.178320,4086726,0.24,-0.14,0.14,-160.81,-68.56,86.44,-0.06,-1.56,0.13,-0.02,0.00,0.10,10.38,64.00,87.06,0.25,0.81,0.13,3,2
1772046748.370023,4086917,0.32,-0.13,0.09,-160.69,-68.62,86.31,-2.06,-0.06,0.50,-0.06,0.01,0.01,10.38,64.00,87.06,0.19,0.13,0.13,3,2
1772046748.559732,4087107,0.27,0.04,0.12,-159.56,-69.00,84.81,-8.94,-2.19,-2.44,-0.05,0.02,0.06,10.31,64.00,87.06,0.69,0.75,0.50,3,2
1772046748.749020,4087297,0.25,0.06,0.19,-158.56,-69.44,83.69,-1.25,-1.75,0.13,-0.02,0.01,0.02,10.31,64.00,87.06,0.13,0.06,0.13,3,2
1772046748.941027,4087488,0.25,-0.10,0.14,-158.56,-69.56,83.94,2.12,0.81,-0.50,-0.10,0.02,0.05,10.31,64.12,87.00,0.44,-0.69,-0.06,3,2
1772046749.131934,4087679,0.30,-0.01,0.06,-158.75,-69.31,83.75,-1.44,1.19,0.88,-0.05,0.06,0.01,10.31,64.12,87.19,-1.87,0.13,-1.12,3,2
1772046749.323693,4087871,0.31,0.14,0.20,-157.87,-69.31,83.44,-0.25,-1.25,0.37,-0.16,0.00,0.09,10.50,64.06,87.31,-0.25,0.19,0.69,4,2
1772046749.515009,4088062,0.29,0.01,0.09,-158.62,-69.44,83.81,0.56,0.94,0.56,-0.02,0.07,-0.08,10.56,64.12,87.25,-1.00,-0.13,-0.56,4,2
1772046749.705392,4088253,0.23,-0.09,0.18,-158.62,-69.44,84.44,5.00,1.31,1.56,-0.09,0.03,0.03,10.44,64.06,87.37,0.13,0.06,-0.37,5,2
1772046749.896702,4088444,0.35,-0.05,0.06,-159.69,-68.94,85.06,3.31,3.06,-1.44,-0.03,0.04,0.00,10.50,63.88,87.37,-1.25,-0.06,-0.75,6,2
1772046750.086474,4088634,0.28,-0.13,0.10,-160.44,-68.87,85.69,-1.19,0.69,0.13,-0.07,-0.02,0.07,10.38,63.75,87.37,0.69,1.12,0.75,7,2
1772046750.278256,4088825,0.27,-0.09,0.10,-160.19,-68.87,85.50,-0.13,-1.25,0.62,-0.05,0.09,-0.02,10.31,63.75,87.44,0.06,-0.56,-0.25,7,2
1772046750.469625,4089017,0.28,-0.07,0.11,-159.87,-69.06,85.37,-0.69,-0.19,0.50,-0.01,0.02,0.01,10.31,63.69,87.44,0.50,1.31,0.88,6,2
1772046750.661680,4089209,0.32,-0.05,0.16,-159.69,-69.06,85.12,-0.19,-0.13,0.06,-0.05,0.03,0.06,10.31,63.69,87.44,-0.06,0.13,0.00,7,2
1772046750.853955,4089401,0.32,-0.13,0.12,-159.81,-69.06,85.06,0.44,0.31,-0.88,-0.11,0.07,0.00,10.31,63.81,87.44,-0.44,0.00,-0.25,7,2
1772046751.045880,4089593,0.25,0.03,0.14,-159.50,-69.19,84.75,-0.06,-0.75,0.13,-0.02,0.03,0.05,10.38,63.88,87.44,-0.62,0.94,0.37,7,2
1772046751.237911,4089785,0.36,-0.10,0.13,-159.87,-69.00,85.50,9.81,0.37,2.94,-0.12,0.01,0.03,10.56,63.81,87.44,-1.31,0.06,0.06,7,2
1772046751.429508,4089977,0.26,-0.17,0.06,-160.56,-68.81,87.12,3.81,1.56,-0.56,-0.06,0.02,0.04,10.50,63.81,87.50,0.62,0.69,0.50,6,2
1772046751.620722,4090168,0.30,-0.11,0.07,-161.44,-68.56,87.56,0.13,-0.06,-0.19,-0.03,0.05,0.08,10.50,63.75,87.50,0.44,0.94,0.44,6,2
1772046751.812042,4090359,0.33,-0.09,0.10,-161.44,-68.56,87.56,-0.56,0.00,-0.44,-0.09,0.05,0.01,10.50,63.75,87.50,0.06,-0.44,-0.06,5,2
1772046752.003271,4090550,0.41,-0.28,0.05,-160.69,-68.81,87.00,-7.87,-3.31,0.19,-0.04,0.01,0.05,10.50,63.75,87.50,0.06,-2.12,-0.81,5,2
1772046752.193489,4090741,0.16,0.26,0.18,-159.00,-69.56,84.69,-0.81,-1.31,0.81,-0.02,0.05,0.00,10.44,63.75,87.50,0.25,0.44,-0.19,5,3
1772046752.387926,4090932,0.27,-0.04,0.15,-158.87,-69.37,85.62,11.63,1.81,3.75,-0.07,0.04,0.04,10.38,63.69,87.50,-0.37,0.50,0.13,7,3
1772046752.574334,4091122,0.34,-0.11,0.06,-160.44,-68.94,87.19,0.81,3.62,-1.31,-0.08,0.00,0.00,10.38,63.69,87.50,1.50,0.37,0.75,6,3
1772046752.763943,4091311,0.41,-0.13,0.09,-161.50,-68.62,87.81,3.19,0.88,0.88,-0.01,0.05,0.02,10.38,63.81,87.56,-0.13,-1.12,0.19,7,3
1772046752.955498,4091503,0.29,-0.11,0.10,-161.69,-68.62,87.94,0.50,1.25,0.25,-0.05,0.06,-0.02,10.44,63.81,87.50,-0.31,0.44,0.00,7,2
1772046753.146432,4091694,0.32,-0.09,0.10,-161.75,-68.56,87.87,-0.13,0.94,0.56,0.00,0.03,0.05,10.38,63.75,87.50,0.62,0.56,1.00,7,2
1772046753.338324,4091886,0.30,-0.18,0.07,-161.69,-68.50,87.81,1.19,-0.06,0.50,-0.05,0.04,0.03,10.38,63.81,87.50,0.25,0.62,0.50,8,2
1772046753.529761,4092077,0.34,-0.08,0.10,-161.37,-68.50,87.37,-1.19,-0.69,0.44,-0.01,0.01,0.02,10.38,63.81,87.50,0.06,0.50,0.19,7,2
1772046753.720423,4092268,0.21,0.01,0.16,-160.81,-68.94,86.50,-3.75,-2.12,-1.06,-0.08,0.05,0.02,10.38,63.81,87.50,0.25,0.06,-0.13,7,2
1772046753.911754,4092459,0.29,0.03,0.13,-160.00,-69.19,85.50,-5.69,-1.31,-1.81,-0.08,0.05,0.07,10.38,63.81,87.44,0.50,0.94,0.50,6,2
1772046754.101277,4092649,0.22,0.05,0.14,-159.62,-69.37,84.94,0.88,0.50,0.81,-0.13,0.03,0.00,10.19,63.94,87.44,1.81,-0.44,-0.06,6,2
1772046754.292475,4092840,0.19,-0.09,0.16,-160.62,-69.12,85.50,5.75,2.31,0.19,-0.10,0.11,0.04,10.19,63.94,87.44,0.19,-0.69,-0.88,4,2
1772046754.482045,4093030,0.26,0.00,0.09,-161.19,-68.56,86.31,2.25,2.56,0.62,-0.02,0.15,-0.01,10.00,63.88,87.62,1.00,1.37,0.00,4,2
1772046754.673376,4093221,0.32,-0.02,0.07,-161.06,-68.31,86.75,0.44,0.37,1.06,-0.13,0.05,0.09,10.00,63.75,87.62,-1.00,0.00,0.13,3,2
1772046754.864508,4093412,0.31,-0.12,0.07,-161.19,-68.31,86.87,-0.13,-0.19,-0.31,-0.07,0.04,0.04,10.00,63.69,87.69,0.13,-0.19,0.31,3,2
1772046755.054611,4093602,0.29,-0.12,0.15,-161.00,-68.44,86.87,0.31,-0.81,0.06,-0.09,0.01,0.03,10.00,63.69,87.69,-0.50,-1.19,-0.37,2,2
1772046755.245364,4093793,0.26,-0.11,0.10,-160.94,-68.50,86.87,-0.56,0.37,0.37,-0.05,0.03,0.14,10.00,63.63,87.69,0.37,1.50,0.25,3,3
1772046755.436759,4093984,0.31,-0.05,0.10,-160.94,-68.44,86.75,-0.31,-0.88,0.00,-0.09,0.07,0.02,10.06,63.56,87.62,-0.13,-0.44,0.06,3,4
1772046755.627772,4094175,0.26,-0.06,0.14,-160.94,-68.44,86.81,-0.31,-0.31,0.00,-0.13,0.03,0.05,10.00,63.56,87.62,0.25,0.75,0.56,4,4
1772046755.819464,4094367,0.29,-0.09,0.16,-161.00,-68.50,86.87,0.25,-0.69,0.37,-0.08,0.07,0.06,10.06,63.50,87.62,0.00,-0.31,-0.13,4,3
1772046756.008736,4094556,0.34,-0.10,0.08,-160.87,-68.50,86.75,-0.88,-0.19,0.50,-0.03,0.04,0.09,10.00,63.56,87.69,0.31,1.00,0.31,4,3
1772046756.200012,4094747,0.30,-0.05,0.08,-160.37,-68.87,85.75,-9.31,-3.12,-2.06,-0.05,0.08,0.17,10.00,63.63,87.69,-0.81,-0.62,-0.06,5,3
1772046756.390113,4094938,0.24,-0.05,0.20,-159.25,-69.50,84.25,-3.44,-3.37,-1.56,-0.07,0.01,0.11,10.00,63.81,87.62,0.37,0.94,0.75,5,3
1772046756.580969,4095128,0.31,-0.03,0.11,-158.62,-69.75,83.94,1.12,0.69,-0.56,-0.05,0.05,-0.01,10.06,63.88,87.75,0.25,-0.75,-0.81,6,3
1772046756.771494,4095319,0.20,-0.01,0.17,-158.56,-69.87,84.00,-0.37,-0.50,0.44,-0.10,0.06,0.07,10.06,63.94,87.81,-0.62,0.88,-0.19,5,3
1772046756.961702,4095509,0.30,-0.01,0.16,-158.50,-69.81,84.00,-0.50,-0.25,-0.75,-0.03,0.10,0.01,9.94,63.94,87.75,1.00,0.50,-0.06,5,3
1772046757.152210,4095700,0.27,0.44,0.17,-158.44,-69.75,83.94,3.31,2.25,0.81,-0.05,0.04,0.09,10.13,63.88,87.62,0.37,1.37,1.06,5,3
1772046757.341871,4095890,0.27,-0.28,0.09,-159.50,-69.31,86.19,5.94,1.19,0.37,-0.10,0.13,0.06,10.13,63.75,87.62,-0.19,1.06,0.88,5,2
1772046757.531516,4096079,0.19,0.06,0.08,-160.19,-69.19,86.56,1.37,1.62,-1.31,-0.12,0.12,0.03,10.38,63.75,87.50,0.19,0.25,-0.06,4,1
1772046757.723285,4096271,0.32,-0.09,0.08,-161.37,-68.94,87.19,-1.06,0.25,-0.56,-0.07,0.01,0.13,10.38,63.69,87.56,-0.25,0.25,0.31,5,2
1772046757.914284,4096462,0.27,-0.14,0.09,-161.37,-68.94,87.25,-0.44,-0.25,0.06,-0.11,0.04,0.07,10.38,63.69,87.50,0.25,-0.37,-0.25,4,2
1772046758.105257,4096653,0.34,-0.06,0.10,-161.06,-68.94,87.00,-1.12,-0.50,0.94,-0.13,0.09,0.00,10.31,63.81,87.56,-0.37,-2.87,-1.00,4,2
1772046758.295785,4096843,0.27,-0.07,0.12,-160.87,-68.94,86.87,-0.62,0.00,0.31,-0.04,0.07,0.09,10.31,63.81,87.56,-0.19,-0.50,-0.50,4,2
1772046758.486509,4097034,0.30,-0.06,0.10,-160.69,-68.94,86.69,-0.81,-0.75,0.31,-0.09,0.06,0.07,10.31,63.88,87.56,-0.13,-0.62,-0.25,5,2
1772046758.677334,4097225,0.25,-0.07,0.14,-160.44,-69.12,86.56,-1.06,-0.50,0.25,-0.06,0.04,0.08,10.31,63.88,87.62,0.25,0.00,-0.06,5,2
1772046758.867896,4097416,0.33,-0.21,0.09,-160.19,-69.19,86.19,-3.12,-1.00,0.00,-0.10,0.06,0.10,10.31,63.88,87.56,0.06,0.06,0.13,6,2
1772046759.058612,4097606,0.28,0.13,0.15,-159.75,-69.50,84.87,-4.25,-1.62,-1.31,-0.05,0.04,0.05,10.38,63.94,87.56,0.13,0.31,0.75,6,2
1772046759.249362,4097797,0.19,-0.03,0.21,-159.62,-69.75,84.94,0.37,0.44,-0.06,-0.16,0.10,0.02,10.38,63.88,87.56,-0.31,0.06,0.25,7,3
1772046759.439850,4097988,0.28,-0.07,0.20,-160.06,-69.56,85.12,0.00,0.81,0.44,-0.06,0.01,0.11,10.38,63.88,87.56,-0.31,0.06,0.00,7,3
1772046759.630712,4098178,0.23,-0.11,0.11,-160.69,-69.31,85.75,4.62,1.87,0.56,-0.09,0.09,0.04,10.38,63.81,87.56,0.50,0.31,0.00,7,3
1772046759.821621,4098369,0.26,-0.07,0.15,-161.44,-69.06,86.31,0.94,0.88,0.13,-0.04,0.08,0.15,10.38,63.81,87.56,-0.44,-0.31,-0.06,7,3
1772046760.012176,4098560,0.31,-0.14,0.09,-161.75,-68.87,86.50,0.44,0.56,0.13,-0.05,0.06,0.10,10.38,63.88,87.56,0.13,0.81,0.25,6,3
1772046760.203320,4098751,0.28,-0.02,0.13,-161.56,-68.87,86.31,-0.13,-0.50,0.44,-0.07,0.07,0.10,10.38,63.94,87.62,-0.19,0.25,-0.06,6,3
1772046760.392479,4098940,0.28,-0.04,0.16,-161.44,-68.94,86.19,-0.94,-1.44,0.44,-0.11,0.08,0.08,10.38,63.94,87.62,0.25,0.56,0.13,5,3
1772046760.584026,4099132,0.23,0.06,0.21,-160.87,-69.19,85.87,1.25,-0.69,0.13,-0.14,0.13,0.03,10.44,64.00,87.62,-0.69,-0.50,-0.25,5,3
1772046760.774911,4099323,0.28,0.04,0.11,-160.94,-69.12,85.94,0.37,0.94,-0.81,-0.13,0.07,0.08,10.44,63.94,87.56,-0.19,-0.25,0.06,4,3
1772046760.965523,4099513,0.29,-0.13,0.11,-161.37,-69.12,86.31,1.12,0.50,-0.56,-0.09,0.04,0.09,10.44,63.88,87.56,-0.31,1.25,0.19,5,3
1772046761.156219,4099704,0.24,0.06,0.12,-161.37,-69.12,86.37,0.44,0.19,-0.44,-0.10,0.09,0.11,10.44,63.94,87.56,0.37,1.37,0.13,4,3
1772046761.346150,4099894,0.23,-0.04,0.07,-161.62,-69.00,86.50,-0.88,1.12,-0.31,-0.10,0.01,0.10,10.44,63.88,87.56,-0.06,-0.25,-0.25,4,3
1772046761.537507,4100085,0.27,-0.08,0.12,-161.81,-68.87,86.62,-0.13,0.00,-0.62,-0.08,0.05,0.09,10.44,63.88,87.56,-0.06,0.06,-0.13,4,3
1772046761.728346,4100276,0.22,-0.06,0.13,-161.56,-68.87,86.44,-0.37,0.37,0.00,-0.09,0.07,0.05,10.38,63.94,87.56,0.13,-0.37,-0.19,4,2
1772046761.919349,4100467,0.29,-0.05,0.13,-161.50,-68.87,86.37,-0.94,0.37,-0.06,-0.11,0.04,0.07,10.38,63.94,87.56,0.13,0.13,0.19,4,2
1772046762.110408,4100658,0.31,-0.05,0.12,-161.37,-68.87,86.31,-0.44,-0.31,-0.31,-0.02,0.05,0.08,10.38,63.94,87.56,0.13,0.37,0.06,5,3
1772046762.300713,4100848,0.28,-0.02,0.16,-161.31,-68.94,86.25,-0.56,0.44,0.13,-0.07,0.02,0.11,10.38,64.00,87.56,0.06,-1.06,0.06,4,3
1772046762.491607,4101039,0.26,-0.05,0.13,-161.31,-69.00,86.25,-1.06,-0.13,0.06,-0.05,0.03,0.16,10.38,63.94,87.56,0.37,0.62,0.31,4,3
1772046762.682270,4101230,0.28,-0.07,0.13,-160.75,-69.12,85.81,-1.69,-2.37,0.06,-0.08,0.03,0.14,10.38,63.94,87.56,0.56,0.50,0.25,6,3
1772046762.873100,4101421,0.29,-0.06,0.14,-160.06,-69.50,85.37,-2.00,-1.37,0.56,-0.07,0.03,0.15,10.38,63.94,87.56,0.31,0.62,0.25,5,2
1772046763.062551,4101610,0.25,-0.01,0.18,-159.50,-69.87,84.81,-1.44,-2.06,0.31,-0.15,0.02,0.12,10.38,63.94,87.56,0.81,-1.25,0.13,5,2
1772046763.252832,4101800,0.32,-0.16,0.07,-159.31,-70.00,84.62,-1.87,-1.56,-0.13,-0.09,0.04,0.04,10.38,64.00,87.44,-0.37,-0.56,0.25,5,2
1772046763.444518,4101992,0.15,0.04,0.28,-158.44,-70.75,83.75,-1.81,-3.75,0.31,-0.13,0.07,0.05,10.25,64.00,87.56,-0.13,-0.31,-0.69,5,2
1772046763.635373,4102183,0.30,-0.06,0.13,-158.12,-70.75,83.75,1.25,1.37,0.81,-0.08,0.05,0.11,10.25,64.00,87.56,-0.50,0.62,-0.25,4,2
1772046763.826202,4102374,0.21,0.06,0.16,-158.31,-70.37,84.06,10.31,3.56,3.62,-0.11,0.06,0.01,10.13,63.88,87.62,-0.62,0.06,-0.50,5,2
1772046764.015566,4102564,0.36,-0.15,0.07,-159.75,-69.69,85.69,3.12,2.44,0.19,0.00,0.00,0.18,10.13,63.81,87.62,1.12,1.12,1.62,4,2
1772046764.205879,4102754,0.25,-0.23,0.10,-160.75,-69.56,86.31,3.62,-1.00,0.13,-0.13,0.07,0.14,10.19,63.81,87.62,-0.19,0.75,0.13,5,2
1772046764.398102,4102946,0.37,-0.11,0.06,-160.44,-69.69,86.12,-4.06,-2.19,1.19,-0.07,0.04,0.05,10.19,63.75,87.56,0.06,-0.25,-0.50,5,2
1772046764.589240,4103137,0.21,0.05,0.16,-159.56,-70.12,85.25,-1.81,-1.69,-0.06,-0.09,0.07,0.04,10.13,63.75,87.56,-0.13,-0.13,-0.25,4,2
1772046764.780426,4103328,0.24,0.03,0.12,-159.12,-70.19,85.06,1.06,0.13,-0.69,-0.16,0.06,0.10,10.13,63.75,87.56,-0.44,-0.25,-0.19,4,2
1772046764.971336,4103519,0.28,-0.14,0.08,-159.31,-70.19,85.19,-0.06,0.56,-0.44,-0.10,0.03,0.09,9.94,63.88,87.62,0.56,-0.88,-1.25,5,2
1772046765.161547,4103709,0.34,0.04,0.09,-158.87,-70.12,84.87,-0.75,0.06,0.44,-0.07,0.12,0.00,9.94,63.94,87.69,0.13,-0.37,-0.44,4,2
1772046765.352767,4103901,0.13,0.05,0.18,-158.56,-70.31,84.75,-0.19,0.75,0.25,-0.05,0.07,0.01,9.94,63.94,87.62,-0.44,-0.19,-0.50,4,2
1772046765.543192,4104091,0.25,-0.14,0.06,-159.44,-70.00,85.25,0.31,1.31,-1.25,-0.05,0.04,0.05,10.00,63.94,87.62,-0.25,0.62,0.56,5,2
1772046765.734336,4104282,0.20,-0.08,0.09,-160.00,-69.81,85.50,0.13,0.37,-1.19,-0.10,0.08,0.06,10.00,63.88,87.62,-1.06,-0.06,-0.69,4,3
1772046765.925043,4104473,0.34,-0.10,0.11,-160.31,-69.62,85.69,0.88,0.37,-0.37,-0.07,0.02,0.03,10.13,63.88,87.56,-0.94,-1.37,-0.69,5,2
1772046766.114422,4104662,0.24,-0.11,0.10,-160.19,-69.69,85.87,-1.75,0.44,-0.19,-0.07,0.03,0.04,10.06,63.81,87.62,0.19,0.81,0.50,4,2
1772046766.305652,4104853,0.28,-0.15,0.09,-159.87,-69.87,85.62,-1.81,-2.56,-0.25,-0.07,0.03,0.09,10.06,63.81,87.62,0.19,0.44,0.44,6,2
1772046766.496419,4105044,0.26,-0.05,0.13,-159.19,-70.31,85.00,-4.87,-1.87,-1.25,-0.05,0.05,0.08,10.06,63.81,87.62,0.25,1.19,0.50,6,2
1772046766.687374,4105235,0.27,-0.04,0.15,-158.56,-70.56,84.50,-0.37,-1.44,0.13,-0.06,-0.01,0.12,10.00,63.88,87.62,0.56,0.06,0.50,6,2
1772046766.876879,4105425,0.29,-0.16,0.07,-158.87,-70.44,84.69,1.56,2.69,0.00,-0.09,0.00,0.05,10.00,63.94,87.62,-0.25,-0.75,-0.13,5,2
1772046767.066618,4105615,0.26,0.07,0.13,-159.12,-70.19,84.94,4.75,-1.25,3.31,-0.12,0.10,0.12,10.06,63.88,87.69,0.13,-0.37,-0.56,6,2
1772046767.258428,4105806,0.28,-0.16,0.07,-159.94,-69.94,86.00,-0.56,3.37,-0.81,-0.06,0.04,0.00,10.00,63.81,87.69,0.31,0.19,0.88,6,2
1772046767.449769,4105997,0.25,-0.10,0.09,-160.25,-69.62,85.87,0.69,-0.81,0.00,-0.11,0.07,0.12,10.00,63.75,87.69,-0.13,-0.44,-0.19,6,2
1772046767.640542,4106188,0.34,-0.06,0.10,-160.19,-69.69,85.81,-0.37,-1.56,0.50,-0.07,0.00,0.10,9.94,63.75,87.69,0.19,1.12,0.44,7,2
1772046767.830148,4106378,0.23,-0.14,0.13,-160.00,-69.87,85.81,0.31,-1.31,-0.31,-0.18,0.07,0.00,9.88,63.75,87.69,0.19,-0.44,-0.13,7,2
1772046768.020641,4106569,0.28,-0.01,0.08,-159.81,-69.94,85.62,-0.69,0.44,0.31,-0.06,0.04,0.04,9.81,63.69,87.69,0.19,0.31,0.19,7,3
1772046768.212451,4106760,0.26,-0.11,0.08,-159.81,-69.94,85.62,-0.44,-0.88,0.00,-0.04,0.05,0.06,9.81,63.63,87.69,0.25,1.06,0.13,5,3
1772046768.403486,4106951,0.30,-0.08,0.03,-159.56,-70.06,85.31,-3.50,-0.37,-2.12,-0.01,0.06,0.03,9.75,63.75,87.69,0.31,0.81,0.13,5,3
1772046768.594470,4107142,0.24,-0.12,0.13,-159.50,-70.12,84.87,-1.37,-0.06,-0.13,-0.03,0.03,0.09,9.75,63.75,87.69,0.00,0.31,0.25,5,3
1772046768.785582,4107333,0.31,-0.05,0.13,-159.31,-70.25,84.62,0.13,-0.69,-0.19,-0.06,0.06,0.01,9.75,63.81,87.69,0.62,-0.44,-0.06,5,3
1772046768.976122,4107524,0.28,0.01,0.12,-159.06,-70.44,84.56,-0.44,0.06,1.06,-0.03,0.05,0.07,9.75,63.88,87.75,0.69,0.31,-0.31,5,3
1772046769.167897,4107716,0.25,-0.01,0.15,-158.62,-70.37,84.31,-1.50,0.00,0.81,-0.12,-0.01,0.03,9.69,63.94,87.75,0.13,-0.56,-0.31,6,4
1772046769.357894,4107906,0.33,-0.05,0.14,-158.44,-70.37,84.19,1.25,0.44,0.56,-0.20,0.12,0.05,9.75,63.88,87.75,-1.75,-2.94,0.50,6,3
1772046769.548204,4108096,0.26,-0.13,0.12,-159.50,-70.12,84.94,6.00,-0.31,-2.94,-0.10,-0.05,0.00,10.31,63.88,87.12,3.75,-2.31,2.31,7,4
1772046769.737878,4108286,0.37,-0.01,0.16,-161.56,-70.25,86.06,-1.69,-1.62,2.44,-0.06,0.04,-0.01,10.31,63.88,86.81,-0.81,1.44,-0.06,6,3
1772046769.927487,4108476,0.25,-0.04,0.09,-160.12,-70.37,85.56,-0.25,2.12,0.00,-0.08,0.01,0.10,10.31,63.69,86.81,0.44,0.75,1.06,8,3
1772046770.119366,4108667,0.29,-0.05,0.12,-160.31,-70.19,85.50,-1.06,-2.31,-0.25,-0.02,0.00,0.17,10.38,63.63,86.75,1.06,0.94,0.56,8,3
1772046770.310640,4108858,0.37,-0.07,0.10,-159.87,-70.31,85.00,-5.56,-1.56,0.69,-0.07,0.02,0.00,10.38,63.50,86.62,-0.13,-1.06,-1.31,8,3
1772046770.501514,4109049,0.26,0.10,0.11,-158.12,-70.62,83.44,-2.87,-2.62,0.62,-0.11,0.03,0.08,10.25,63.69,86.87,-0.13,-1.69,0.31,8,3
1772046770.691311,4109239,0.20,-0.09,0.18,-157.87,-70.94,83.37,1.44,-2.31,-0.69,-0.10,0.01,-0.14,10.44,63.88,86.87,-2.12,-2.94,-1.37,8,3
1772046770.880928,4109429,0.13,-0.03,0.26,-158.25,-71.06,84.25,6.44,0.00,2.12,-0.08,0.04,0.06,10.38,63.88,87.00,0.00,0.00,-0.56,7,3
1772046771.072888,4109621,0.34,-0.12,0.10,-158.94,-70.56,85.44,6.00,1.19,1.06,-0.01,-0.01,0.09,10.25,63.75,87.06,0.81,1.94,0.69,7,2
1772046771.263915,4109812,0.26,-0.11,0.08,-159.94,-70.37,86.12,2.06,0.69,1.19,-0.04,0.04,0.07,10.25,63.63,87.12,0.00,1.06,-0.19,7,2
1772046771.454952,4110003,0.31,-0.10,0.09,-160.00,-70.19,86.06,0.06,0.19,0.31,-0.10,0.00,0.11,10.13,63.50,87.12,-0.13,1.56,0.31,6,2
1772046771.646142,4110194,0.24,-0.12,0.07,-160.00,-70.19,86.00,0.37,0.19,0.06,-0.13,0.04,0.02,10.13,63.44,87.12,-0.19,-0.37,-0.13,6,2
1772046771.837351,4110385,0.32,-0.02,0.09,-160.00,-70.19,85.94,0.06,-0.56,0.56,-0.11,0.05,0.04,10.00,63.44,87.19,-0.25,-0.56,-0.94,4,2
1772046772.028162,4110576,0.24,-0.09,0.14,-159.69,-70.25,85.81,0.75,-0.06,-0.44,-0.11,0.08,-0.02,10.00,63.56,87.25,-0.75,-0.50,-0.75,5,2
1772046772.218491,4110766,0.23,-0.04,0.08,-159.69,-70.19,85.75,-0.56,1.56,-0.56,-0.08,0.02,0.03,10.00,63.56,87.25,-0.37,-0.88,-0.37,4,2
1772046772.409025,4110957,0.32,-0.13,0.08,-159.81,-70.12,85.75,0.56,-1.00,-0.06,-0.09,0.06,0.04,10.06,63.63,87.25,0.06,0.06,0.00,4,2
1772046772.599363,4111147,0.32,0.01,0.09,-159.62,-70.19,85.62,0.25,0.44,-0.19,-0.04,0.06,0.00,10.00,63.63,87.31,0.00,0.00,-0.37,4,2
1772046772.790139,4111338,0.29,0.04,0.10,-159.56,-70.19,85.50,-0.69,0.75,0.19,-0.09,0.02,0.06,10.00,63.63,87.37,-0.75,-1.12,-0.88,4,2
1772046772.981931,4111530,0.31,-0.10,0.06,-159.50,-70.19,85.50,-1.37,-0.88,-0.37,-0.10,-0.01,-0.01,10.00,63.63,87.31,1.06,-0.25,-0.44,5,2
1772046773.172241,4111720,0.26,0.52,0.14,-159.75,-70.69,82.75,-10.00,-0.69,-1.37,-0.08,0.03,-0.09,10.06,63.69,87.19,0.75,-0.31,-0.19,4,2
1772046773.362905,4111911,0.09,-0.02,0.13,-158.62,-70.81,82.81,2.62,0.62,0.94,-0.08,0.04,0.03,10.06,63.63,87.19,0.44,0.19,0.69,4,2
1772046773.552348,4112101,0.34,-0.31,0.08,-159.00,-70.25,84.81,11.19,0.94,2.00,-0.03,0.08,0.00,10.06,63.50,87.25,0.25,0.50,0.00,4,2
1772046773.742242,4112290,0.36,-0.02,0.06,-160.31,-70.06,85.75,-0.06,1.75,0.13,-0.09,0.08,-0.03,10.13,63.50,87.25,-0.37,-2.87,-1.25,5,3
1772046773.933912,4112482,0.23,-0.11,0.08,-160.81,-70.06,86.12,-1.12,-0.62,0.44,-0.08,0.04,0.01,10.06,63.63,87.25,-0.31,-0.69,-0.44,5,3
1772046774.124539,4112673,0.31,-0.14,0.06,-160.69,-70.06,86.00,0.50,0.13,-0.37,0.00,0.04,0.05,10.06,63.63,87.31,0.37,0.62,0.50,4,3
1772046774.315947,4112864,0.28,-0.07,0.10,-160.62,-70.06,85.87,-0.50,0.62,0.62,-0.06,0.02,0.06,10.00,63.69,87.37,-0.69,-1.44,-0.69,4,2
1772046774.507057,4113055,0.27,-0.07,0.10,-160.50,-70.06,85.75,-0.75,-0.06,0.50,-0.02,0.02,0.08,10.00,63.69,87.37,-0.13,0.44,-0.13,4,2
1772046774.697937,4113246,0.31,-0.05,0.08,-160.50,-70.06,85.69,-1.25,-0.62,-0.06,-0.05,0.04,0.06,10.06,63.69,87.37,0.06,-0.31,0.06,4,4
1772046774.888953,4113437,0.20,-0.04,0.12,-160.06,-70.25,85.44,-1.31,-1.06,0.00,-0.13,0.06,0.03,10.00,63.69,87.37,0.88,1.06,0.75,4,4
1772046775.079039,4113627,0.25,-0.06,0.15,-159.94,-70.37,85.31,0.00,-0.75,0.75,-0.05,0.09,0.04,10.06,63.69,87.37,0.25,-0.19,0.00,4,4
1772046775.269582,4113818,0.27,-0.05,0.08,-159.94,-70.31,85.31,0.69,0.94,-0.13,-0.09,0.03,0.02,10.06,63.63,87.37,0.19,0.19,0.31,3,4
1772046775.460340,4114008,0.39,-0.02,0.08,-159.87,-70.31,85.31,0.37,0.44,1.31,-0.09,0.06,0.04,10.19,63.63,87.31,0.62,-0.31,2.06,4,4
1772046775.651041,4114199,0.31,-0.32,0.07,-160.31,-70.37,85.44,-0.62,1.25,-1.00,-0.03,-0.03,0.01,10.44,63.69,86.81,1.87,-0.94,0.94,3,3
1772046775.841858,4114390,0.19,-0.07,0.24,-159.62,-70.62,84.81,-1.19,-3.69,1.31,-0.10,0.07,0.00,10.19,63.88,86.75,0.31,-0.19,-0.94,3,3
1772046776.031987,4114580,0.31,0.13,0.10,-158.62,-70.62,84.44,3.25,3.06,0.50,-0.11,0.08,0.03,10.00,63.75,86.75,1.37,-0.13,0.13,3,3
1772046776.222899,4114771,0.29,-0.27,0.08,-159.94,-70.31,85.50,1.00,1.37,-1.50,-0.06,0.06,0.01,10.06,63.75,86.69,-1.00,-0.69,-1.12,3,4
1772046776.412490,4114960,0.34,0.00,0.04,-159.94,-70.06,85.37,-1.12,1.62,0.62,-0.05,0.03,-0.01,9.94,63.63,86.75,-0.19,-0.31,-0.19,4,3
1772046776.602412,4115150,0.23,-0.32,0.11,-160.44,-70.19,85.62,-1.50,-1.56,-3.19,-0.02,-0.02,-0.06,9.75,63.75,86.50,2.06,-0.94,0.44,4,2
1772046776.793957,4115342,0.04,0.20,0.12,-158.69,-70.31,85.00,6.62,-4.62,4.25,-0.06,0.20,0.13,9.81,63.50,87.06,-0.94,1.37,-0.06,4,2
1772046776.984997,4115533,0.40,0.06,0.06,-159.62,-70.00,85.44,2.50,2.31,-2.50,-0.01,-0.05,0.12,10.31,63.13,86.87,1.81,0.56,2.00,5,2
1772046777.176413,4115724,0.26,-0.18,0.06,-161.81,-70.06,86.44,-3.44,-1.75,0.19,-0.03,-0.03,0.05,10.50,63.13,86.69,0.37,-0.19,-0.13,5,3
1772046777.366073,4115914,0.31,0.22,0.14,-160.69,-70.19,85.31,-1.06,-0.19,1.81,-0.02,0.07,0.01,10.25,63.25,86.81,-1.00,-3.25,-1.50,5,3
1772046777.555797,4116104,0.15,-0.03,0.19,-160.31,-70.44,85.06,-3.25,0.00,-2.81,-0.08,0.02,-0.03,10.13,63.38,86.56,-1.25,-2.69,-0.62,5,3
1772046777.747893,4116296,0.35,-0.08,0.12,-161.06,-70.19,85.56,3.56,-0.13,0.62,-0.14,0.14,0.00,10.13,63.31,86.81,-0.69,-0.37,-1.44,5,3
1772046777.939089,4116487,0.20,0.00,0.05,-160.94,-70.12,85.69,-0.69,0.94,-1.06,-0.20,-0.01,-0.03,10.13,63.25,86.87,0.31,-0.50,0.44,5,3
1772046778.130020,4116678,0.35,-0.08,0.10,-161.87,-69.94,86.12,0.69,-0.31,0.06,-0.08,0.08,-0.04,10.25,63.31,86.87,0.06,-0.69,-0.69,5,3
1772046778.320729,4116869,0.21,0.00,0.11,-161.50,-70.06,86.00,-1.19,0.88,-0.50,-0.06,-0.02,0.03,10.25,63.25,86.87,0.56,0.81,0.88,5,3
1772046778.511763,4117060,0.31,-0.05,0.06,-161.94,-70.00,86.19,0.56,-0.69,-0.06,-0.10,0.04,0.07,10.31,63.19,86.87,0.00,0.62,0.06,5,3
1772046778.703338,4117251,0.26,-0.08,0.16,-161.75,-70.06,86.12,0.19,-0.44,-0.19,-0.05,-0.02,0.04,10.31,63.19,86.81,-0.06,0.50,0.88,6,3
1772046778.893565,4117442,0.25,-0.20,0.11,-161.94,-70.12,86.31,1.44,0.75,0.31,-0.05,0.05,0.02,10.13,63.13,86.81,0.62,-0.56,-0.81,5,3
1772046779.084394,4117633,0.27,0.13,0.04,-161.25,-69.87,85.62,0.69,-1.50,0.25,-0.05,0.02,0.07,10.13,63.06,86.81,0.13,1.69,-0.06,4,3
1772046779.274343,4117822,0.41,-0.06,0.02,-161.25,-69.94,85.75,-2.94,-0.06,0.13,-0.06,-0.03,-0.01,10.13,63.13,86.81,1.00,0.50,1.00,4,3
1772046779.464815,4118013,0.11,-0.10,0.10,-160.69,-70.19,85.25,-0.19,0.62,-0.44,-0.03,0.02,0.00,10.06,63.25,86.81,0.56,-0.50,0.00,5,3
1772046779.656374,4118204,0.24,-0.04,0.11,-160.50,-70.19,85.12,1.12,-1.19,-0.31,-0.12,0.04,-0.02,9.88,63.44,87.00,-0.81,-0.31,-0.56,5,3
1772046779.846711,4118395,0.29,-0.21,0.07,-160.94,-70.12,85.94,3.81,2.31,0.50,-0.10,0.06,-0.10,9.88,63.44,87.06,0.19,-1.37,-0.31,5,3
1772046780.037131,4118586,0.20,0.06,0.11,-161.00,-70.00,85.75,-1.00,1.94,1.25,0.02,0.01,0.11,9.81,63.31,87.06,-0.31,1.25,0.37,5,3
1772046780.228850,4118777,0.38,-0.06,0.07,-161.44,-69.62,85.75,-0.44,-0.75,-0.25,-0.10,0.03,0.01,9.88,63.31,87.06,-0.50,-0.75,-0.06,5,3
1772046780.418020,4118966,0.24,-0.13,0.13,-160.87,-70.06,85.50,-6.56,-2.37,-2.06,-0.10,0.04,-0.04,9.88,63.31,87.06,-0.13,-0.69,0.06,6,4
1772046780.609683,4119158,0.22,0.02,0.20,-160.19,-70.56,84.50,-1.19,-2.06,0.44,0.00,-0.03,0.07,9.88,63.38,86.94,0.31,1.25,0.62,5,3
1772046780.800400,4119349,0.35,-0.05,0.11,-160.25,-70.50,84.50,1.19,1.69,0.00,-0.06,0.02,-0.04,9.94,63.31,87.00,-0.19,0.31,0.31,5,4
1772046780.991857,4119540,0.25,-0.03,0.15,-160.81,-70.44,85.19,5.75,1.75,0.44,-0.07,0.00,0.03,9.94,63.19,87.00,-0.06,0.00,-0.25,5,3
1772046781.181607,4119730,0.40,-0.20,0.05,-161.87,-70.00,86.12,1.69,0.94,-0.06,-0.12,0.00,0.00,9.94,63.25,87.00,-0.19,-0.06,0.13,5,3
1772046781.372646,4119921,0.26,-0.06,0.11,-161.69,-70.00,86.06,0.13,0.81,0.44,-0.09,0.02,-0.03,9.88,63.25,87.00,1.06,-0.88,-0.25,4,3
1772046781.563383,4120112,0.28,-0.06,0.09,-161.44,-69.94,85.75,0.06,-0.94,-0.31,-0.05,-0.01,0.05,9.94,63.31,87.00,0.69,0.25,0.37,4,3
1772046781.754052,4120302,0.28,0.02,0.09,-161.37,-70.00,85.75,-0.44,1.12,0.13,-0.10,0.05,0.00,9.88,63.38,87.06,-0.31,-0.19,-0.88,4,3
1772046781.945339,4120493,0.18,0.00,0.08,-161.25,-69.94,85.62,-1.37,0.06,-0.06,-0.11,0.00,0.04,9.88,63.31,87.06,0.00,-0.25,-0.13,3,3
1772046782.134558,4120683,0.08,0.02,0.20,-161.62,-69.62,85.75,1.69,6.31,-0.50,-0.06,0.04,-0.02,9.81,63.31,87.06,0.06,-0.25,-0.06,2,2
1772046782.324135,4120872,0.33,-0.11,0.06,-163.19,-68.62,86.31,1.06,4.06,-1.06,-0.13,0.00,0.12,10.00,63.06,86.94,-1.06,-0.50,0.75,2,2
1772046782.515614,4121064,0.36,-0.04,0.00,-164.12,-68.06,86.81,1.50,2.25,0.31,-0.09,0.02,0.12,10.19,62.94,86.81,0.13,0.56,0.25,3,2
1772046782.706993,4121255,0.27,-0.05,0.16,-164.31,-68.00,87.94,5.94,-2.31,0.31,-0.07,-0.06,0.00,10.50,62.88,86.81,-1.06,0.25,0.19,3,3
1772046782.898472,4121447,0.26,-0.27,0.05,-165.44,-68.31,89.19,1.37,0.19,0.75,-0.12,0.00,0.06,10.25,62.88,87.00,0.31,0.25,-0.88,4,3
1772046783.088185,4121636,0.27,-0.04,0.11,-165.37,-68.12,89.25,1.75,1.25,1.37,-0.06,0.04,0.05,9.94,62.88,87.25,-1.19,0.25,-0.69,4,3
1772046783.277886,4121826,0.28,-0.10,0.09,-165.56,-67.75,89.50,1.81,1.69,-0.44,-0.08,-0.03,0.00,9.88,62.88,87.37,-0.69,-0.50,-0.75,5,3
1772046783.469542,4122018,0.33,-0.12,0.09,-166.00,-67.50,89.94,1.06,-0.19,-0.13,-0.08,-0.03,0.15,9.75,62.81,87.50,0.06,0.50,-0.37,4,3
1772046783.660547,4122209,0.32,-0.13,0.08,-166.12,-67.50,90.12,0.69,-1.31,0.19,-0.09,0.01,0.05,9.69,62.88,87.56,-0.31,0.44,-0.19,5,3
1772046783.851868,4122400,0.28,0.00,0.11,-165.87,-67.69,90.06,0.19,-0.50,-0.19,-0.07,0.04,0.04,9.69,62.88,87.56,-0.37,0.00,0.06,5,3
1772046784.041171,4122590,0.31,-0.13,0.12,-165.81,-67.75,90.12,0.06,-1.25,0.00,-0.09,0.01,0.04,9.75,62.81,87.50,0.19,0.37,0.00,5,3
1772046784.231889,4122780,0.26,0.06,0.09,-165.37,-67.87,89.94,0.06,0.50,-0.25,-0.10,0.03,0.00,9.75,62.81,87.50,0.37,-0.06,-0.37,5,3
1772046784.424042,4122972,0.31,-0.07,0.08,-165.75,-67.94,90.37,-1.31,-0.25,-0.31,-0.11,0.00,0.05,9.69,62.75,87.50,0.25,0.69,0.19,4,2
1772046784.614557,4123163,0.27,-0.01,0.13,-165.69,-68.12,90.37,0.81,-2.12,-0.81,-0.17,-0.03,0.10,9.75,62.63,87.50,0.25,0.19,0.25,4,2
1772046784.806350,4123355,0.36,-0.03,0.07,-165.87,-68.31,90.69,0.31,-1.19,1.44,-0.04,-0.10,0.16,9.75,62.63,87.56,-0.69,-2.31,-1.00,3,2
1772046784.996276,4123545,0.28,-0.03,0.14,-165.87,-68.69,91.12,1.94,-2.25,0.31,-0.07,0.00,0.09,9.69,62.75,87.69,0.06,0.69,0.06,4,2
1772046785.186131,4123734,0.28,-0.11,0.11,-166.50,-68.94,91.87,1.69,-0.44,-1.00,-0.12,-0.01,0.04,9.88,62.75,87.81,-0.62,-0.31,-0.13,3,2
1772046785.377125,4123925,0.22,-0.17,0.12,-167.31,-69.00,92.56,1.12,0.06,-0.19,-0.05,0.02,0.06,9.88,62.69,87.81,-0.44,-0.75,-0.56,4,2
1772046785.567899,4124116,0.26,-0.07,0.12,-167.44,-68.94,92.56,-0.31,-0.25,1.25,-0.09,0.00,0.10,9.75,62.69,87.87,0.06,0.31,-0.31,3,2
1772046785.759278,4124308,0.26,-0.01,0.08,-167.06,-68.81,92.19,-0.62,0.69,0.62,-0.09,0.00,0.04,9.75,62.63,87.87,-0.37,-0.44,0.44,3,2
1772046785.948992,4124497,0.25,-0.18,0.13,-167.19,-68.87,92.25,1.31,-1.31,0.56,-0.10,0.01,0.10,9.75,62.56,87.87,0.50,0.50,0.06,3,2
1772046786.140147,4124689,0.31,0.10,0.08,-167.00,-68.94,92.12,0.37,-0.19,0.37,-0.10,0.04,0.02,9.81,62.63,87.81,0.19,0.88,0.19,3,2
1772046786.332467,4124881,0.22,-0.14,0.08,-167.06,-69.00,92.19,-1.37,0.81,0.44,-0.05,0.00,0.07,9.81,62.56,87.81,0.13,0.44,0.31,4,2
1772046786.522382,4125071,0.27,-0.15,0.09,-166.94,-69.00,92.06,0.25,-1.37,-0.37,-0.08,0.01,0.07,9.81,62.50,87.81,0.25,0.62,0.13,4,2
1772046786.714366,4125263,0.27,-0.05,0.12,-166.50,-69.00,91.75,-0.75,0.25,0.31,0.02,-0.03,0.09,9.81,62.44,87.81,-0.56,-1.12,-0.31,5,2
1772046786.905997,4125454,0.23,-0.07,0.08,-166.56,-69.00,91.75,0.69,0.06,-0.19,-0.10,0.03,0.10,9.75,62.38,87.81,0.06,0.19,-0.50,5,2
1772046787.098661,4125647,0.36,-0.03,0.10,-166.50,-68.87,91.62,-0.13,-0.19,0.13,-0.05,-0.03,0.06,9.75,62.38,87.81,-0.13,-0.06,0.00,5,2
1772046787.290054,4125838,0.23,-0.11,0.12,-166.31,-68.94,91.62,-0.37,-0.81,0.69,-0.02,0.03,0.09,9.81,62.44,87.81,-0.44,-1.00,-0.44,4,2
1772046787.481703,4126030,0.26,-0.16,0.12,-166.31,-69.00,91.56,0.13,-0.75,0.06,-0.12,0.00,0.05,9.81,62.50,87.87,-0.69,-0.25,0.13,4,2
1772046787.674134,4126222,0.27,-0.14,0.04,-166.19,-68.94,91.50,-0.37,0.56,0.13,-0.05,-0.02,0.04,9.81,62.50,87.87,-0.06,0.25,0.19,4,2
1772046787.866159,4126414,0.24,-0.12,0.10,-166.00,-69.06,91.31,-0.06,-0.81,0.94,-0.07,-0.01,0.13,9.75,62.44,87.87,0.50,0.44,-0.06,4,2
1772046788.057900,4126606,0.35,0.07,0.07,-165.75,-68.94,91.00,0.19,0.06,0.06,-0.15,0.06,0.01,9.69,62.56,87.87,0.13,-1.00,-0.69,4,2
1772046788.248483,4126797,0.19,0.02,0.10,-165.56,-68.87,90.75,-1.37,2.25,-0.13,-0.09,0.03,0.10,9.75,62.50,87.87,-0.25,0.37,0.37,4,2
1772046788.441145,4126989,0.27,-0.12,0.10,-165.94,-68.56,90.75,-1.00,1.50,-0.69,-0.05,0.03,0.03,9.81,62.50,87.81,-0.75,0.31,0.37,4,2
1772046788.630571,4127179,0.27,-0.15,0.12,-165.62,-68.37,90.25,-2.31,1.06,-1.12,-0.03,-0.05,0.14,9.88,62.44,87.69,0.75,0.25,-0.37,4,2
1772046788.822163,4127371,0.39,-0.60,0.05,-164.94,-68.19,89.19,-12.88,-0.13,4.00,-0.18,0.02,0.23,9.88,62.38,87.44,2.75,0.25,3.25,4,3
1772046789.014386,4127562,0.40,0.58,0.07,-161.75,-68.62,82.81,-23.69,-4.06,-4.94,-0.09,0.01,-0.13,10.50,62.69,86.69,1.25,-2.69,0.00,4,3
1772046789.206133,4127755,0.17,-0.11,0.28,-157.81,-69.87,81.12,0.00,-6.69,1.62,0.02,0.06,-0.06,9.88,63.13,86.69,1.44,-0.31,0.19,4,3
1772046789.395581,4127944,0.19,-0.06,0.28,-155.62,-70.87,80.62,1.94,-0.75,-1.56,-0.13,-0.05,0.10,9.50,63.19,86.62,2.25,0.88,-0.13,5,3
1772046789.584644,4128133,0.30,0.16,0.12,-155.44,-70.56,80.62,3.94,1.12,4.31,-0.04,0.05,0.16,9.00,63.06,87.06,-0.19,2.06,-0.50,5,3
1772046789.776588,4128325,0.10,0.20,0.16,-155.94,-69.87,81.75,15.44,8.13,-1.25,-0.02,-0.13,-0.09,9.31,62.94,86.56,2.44,-2.81,2.12,5,3
1772046789.968405,4128517,0.29,-0.40,0.16,-162.12,-68.50,86.56,8.25,8.81,0.56,0.06,0.10,-0.10,9.19,63.00,86.31,-0.06,1.25,0.06,5,3
1772046790.159660,4128708,0.36,0.04,0.01,-162.56,-67.50,86.94,5.06,4.37,0.88,-0.06,0.00,0.14,9.19,62.56,86.44,-0.44,1.37,0.69,6,3
1772046790.350915,4128900,0.40,-0.14,0.05,-164.44,-67.00,88.12,1.12,0.37,-2.00,-0.08,0.01,0.00,9.56,62.50,86.31,0.00,0.50,0.62,7,3
1772046790.542648,4129091,0.30,-0.11,0.14,-164.56,-67.31,88.44,-0.50,-1.12,-0.37,0.03,-0.11,0.13,9.56,62.38,86.31,0.56,0.75,0.13,6,3
1772046790.734705,4129283,0.24,-0.21,0.09,-164.81,-67.37,88.31,-6.06,-0.19,-0.31,-0.11,0.10,-0.38,9.00,62.44,86.31,-4.37,-3.06,-3.06,7,3
1772046790.926469,4129475,0.16,-0.09,0.15,-162.44,-67.31,87.12,1.25,-1.44,0.13,-0.05,-0.01,0.13,9.38,62.19,86.56,0.50,-0.13,1.75,7,2
1772046791.115529,4129664,0.53,-0.14,0.06,-164.06,-67.00,87.62,2.62,0.37,-2.12,-0.02,-0.04,0.04,9.69,62.31,86.50,0.44,0.94,0.75,7,2
1772046791.305891,4129854,0.32,-0.14,0.12,-164.37,-67.37,87.94,-2.50,-0.94,0.94,-0.05,-0.03,-0.01,9.75,62.44,86.44,1.19,-0.06,0.00,6,2
1772046791.497082,4130045,0.29,0.00,0.12,-163.00,-68.12,86.06,-13.56,-5.00,-3.56,-0.04,0.00,0.02,9.63,62.50,86.37,-0.06,-0.31,-0.06,5,2
1772046791.688914,4130237,0.27,0.12,0.19,-160.50,-69.25,83.69,-5.81,-5.25,-0.50,-0.03,0.00,0.01,9.50,62.56,86.31,2.06,-1.25,0.50,6,2
1772046791.881027,4130429,0.25,0.15,0.14,-159.00,-69.75,82.75,-1.25,-3.06,0.69,-0.03,-0.01,0.00,9.69,62.69,86.31,-0.50,0.44,-0.44,7,2
1772046792.070279,4130619,0.29,-0.12,0.11,-158.87,-70.19,83.12,-3.00,0.00,0.13,0.02,-0.01,-0.06,9.81,62.69,86.25,-1.31,0.13,1.31,7,2
1772046792.259872,4130808,0.27,0.37,0.24,-158.87,-70.50,81.56,-8.13,-1.25,-4.94,-0.12,-0.08,0.00,10.00,62.63,86.25,-0.13,1.00,0.81,6,2
1772046792.452060,4131001,0.25,-0.17,0.15,-158.19,-70.12,83.75,30.12,4.31,9.06,-0.02,-0.04,0.13,9.94,62.38,86.25,-0.75,2.44,0.13,7,2
1772046792.643195,4131192,0.29,-0.30,0.00,-161.69,-69.19,87.75,0.06,3.06,-0.81,-0.11,0.00,0.19,9.94,62.31,86.37,-0.06,1.25,0.31,7,2
1772046792.836592,4131385,0.47,-0.46,-0.01,-162.62,-68.75,87.56,-7.31,-0.31,-0.50,-0.09,0.06,0.06,9.94,62.31,86.31,-1.31,-2.00,-1.00,6,2
1772046793.028731,4131577,0.13,0.36,0.22,-160.69,-69.94,83.06,-19.56,-4.81,-5.87,-0.02,-0.03,0.04,9.81,62.50,86.25,0.94,0.50,-0.25,6,2
1772046793.220521,4131769,0.31,-0.13,0.15,-158.19,-70.31,81.56,2.62,-2.94,2.00,-0.17,0.04,0.00,9.50,62.75,86.31,1.19,-1.12,1.00,6,2
1772046793.410053,4131958,0.29,-0.01,0.13,-157.25,-70.56,81.44,0.81,-1.50,-0.44,-0.18,0.05,-0.01,9.69,62.88,86.19,1.81,-1.31,1.31,7,2
1772046793.599168,4132148,0.31,0.02,0.11,-157.75,-70.75,81.50,0.50,1.12,0.75,-0.04,0.06,-0.05,9.69,63.00,86.00,-2.12,-0.62,-1.50,8,2
1772046793.791540,4132340,0.08,-0.16,0.12,-158.06,-70.56,82.69,11.38,6.50,0.44,-0.03,-0.06,0.02,9.88,62.88,85.56,2.12,-0.37,0.75,7,2
1772046793.983618,4132532,0.48,-0.19,-0.02,-161.50,-69.25,84.56,2.50,4.19,1.31,-0.09,-0.01,-0.04,9.81,62.75,85.50,-1.31,1.06,-0.50,6,2
1772046794.174745,4132723,0.27,-0.07,0.01,-161.25,-69.00,84.50,-0.06,0.94,1.19,-0.06,0.00,0.06,9.69,62.56,85.62,-0.94,0.13,0.75,7,2
1772046794.365871,4132914,0.41,-0.16,0.08,-160.81,-69.06,84.00,-3.31,-3.81,-0.50,-0.03,-0.10,0.07,9.81,62.56,85.56,0.31,1.87,0.37,6,2
1772046794.557227,4133106,0.24,-0.03,0.16,-159.94,-69.69,83.44,-1.56,-1.87,0.56,-0.08,-0.02,0.04,9.75,62.69,85.62,0.06,-0.19,-0.13,6,2
1772046794.748580,4133297,0.27,-0.12,0.08,-159.81,-69.75,83.31,0.13,0.13,1.00,-0.06,0.02,0.04,9.75,62.69,85.62,0.00,-0.94,-0.37,6,2
1772046794.941642,4133490,0.31,-0.05,0.08,-159.69,-69.75,83.19,0.06,0.06,0.13,-0.05,0.00,0.00,9.75,62.69,85.62,-0.06,-0.06,-0.13,6,2
1772046795.134286,4133682,0.23,-0.17,0.10,-159.75,-69.81,83.25,0.62,-0.94,-0.25,-0.10,0.08,0.00,9.75,62.81,85.69,-0.19,-0.06,-0.25,6,2
1772046795.326851,4133875,0.25,0.00,0.13,-159.56,-69.81,83.19,1.00,0.56,0.06,-0.07,0.00,0.02,9.75,62.81,85.69,-0.62,-0.06,-0.31,6,2
1772046795.519203,4134068,0.28,-0.05,0.12,-160.44,-69.50,84.00,6.44,2.12,0.75,-0.04,-0.06,0.04,9.81,62.75,85.75,-1.19,-0.37,-0.69,5,2
1772046795.708556,4134257,0.19,-0.18,0.04,-161.50,-69.06,84.81,-1.50,2.69,0.13,0.00,-0.01,-0.08,9.88,62.88,85.69,-1.19,-1.12,-0.31,6,2
1772046795.900412,4134449,0.18,-0.13,0.10,-161.62,-68.94,84.81,0.88,0.62,-1.31,0.00,0.00,0.02,9.94,62.75,85.75,-0.62,1.25,0.19,6,3
1772046796.091887,4134640,0.30,-0.13,0.08,-162.06,-68.69,84.94,-0.31,1.44,-2.19,-0.06,0.01,-0.04,10.00,62.63,85.69,-0.44,0.31,0.19,4,3
1772046796.282790,4134831,0.34,-0.05,0.09,-162.25,-68.69,85.00,-0.69,0.37,-0.25,-0.13,0.00,0.08,9.94,62.56,85.69,1.62,-0.50,0.62,4,3
1772046796.472358,4135021,0.52,0.23,0.21,-161.69,-68.62,84.37,-2.00,-3.87,2.87,-0.12,-0.05,0.15,10.06,62.56,85.69,1.19,2.56,0.88,4,3
1772046796.663186,4135212,0.37,-0.01,0.05,-161.44,-68.81,84.37,-0.19,1.56,1.06,-0.07,-0.02,0.05,10.06,62.63,85.69,0.00,0.25,0.69,3,2
1772046796.855054,4135403,0.21,-0.07,0.14,-160.87,-69.19,83.87,-6.37,-4.87,-1.69,-0.09,-0.03,0.12,10.06,62.69,85.75,0.75,-1.31,-0.25,4,2
1772046797.046324,4135595,0.29,0.03,0.11,-160.31,-69.37,83.37,0.94,-0.50,-0.75,-0.09,0.04,-0.07,10.06,62.88,85.75,-0.19,-0.50,-0.19,4,2
1772046797.236514,4135785,0.19,-0.11,0.12,-160.81,-69.37,84.00,2.69,1.50,0.62,-0.08,0.01,0.00,10.06,62.81,85.81,-2.62,-0.25,-2.00,3,2
1772046797.427500,4135976,0.24,-0.16,0.02,-161.69,-69.06,84.44,-1.25,1.00,-1.31,-0.07,0.00,-0.15,10.06,62.75,85.75,-1.31,-0.13,-0.31,3,2
1772046797.618409,4136167,0.30,-0.22,0.08,-161.37,-69.19,84.31,-3.06,0.69,-1.06,0.00,-0.03,0.06,10.06,62.75,85.69,0.37,-0.25,0.19,3,2
1772046797.809868,4136358,0.33,-0.10,0.08,-160.56,-69.25,83.50,-5.44,-2.25,0.81,-0.08,0.00,0.11,10.06,62.75,85.69,-0.13,0.50,0.13,3,2
1772046798.001272,4136550,0.27,0.00,0.11,-159.25,-69.50,82.44,0.44,-0.69,1.00,-0.06,0.03,0.01,10.06,62.75,85.69,0.19,-0.13,-0.19,3,2
1772046798.194005,4136742,0.19,-0.02,0.18,-159.19,-69.56,82.50,0.81,-0.19,0.13,-0.12,-0.14,0.06,9.75,62.81,85.81,1.06,-2.37,-4.00,3,2
1772046798.383209,4136932,0.19,0.00,0.22,-159.19,-69.37,82.50,-4.62,0.06,0.56,-0.17,0.00,0.02,9.31,63.06,85.81,0.31,-4.81,-1.62,4,2
1772046798.575236,4137123,0.32,0.14,-0.01,-159.94,-68.87,82.19,0.00,4.81,-0.50,-0.06,0.03,-0.05,9.19,63.19,85.75,-0.44,-2.19,-1.06,4,3
1772046798.766033,4137315,0.37,0.15,0.15,-160.44,-68.62,82.62,4.81,-3.19,1.44,-0.04,0.08,-0.08,9.19,63.56,86.12,-1.19,-1.25,-1.31,5,4
1772046798.958332,4137507,0.09,-0.12,0.19,-160.25,-69.56,84.06,0.81,0.69,-0.44,-0.02,-0.07,0.08,9.31,63.50,86.06,-0.37,0.13,0.88,4,4
1772046799.150789,4137699,0.35,-0.08,0.07,-161.31,-69.25,84.44,0.50,0.62,-0.88,-0.04,0.03,-0.03,9.44,63.56,86.12,-0.81,0.06,0.44,5,4
1772046799.343043,4137891,0.24,-0.13,0.09,-161.44,-69.25,84.50,0.62,-0.25,-1.12,-0.04,0.00,-0.04,9.44,63.63,86.12,0.50,-1.00,-0.25,4,4
1772046799.532375,4138081,0.25,-0.11,0.09,-161.00,-69.56,84.12,-5.12,-3.62,0.94,-0.09,0.00,0.07,9.31,63.56,86.00,1.06,-0.31,-1.37,4,4
1772046799.721092,4138270,0.26,0.22,0.16,-159.12,-69.87,82.44,-3.62,0.25,2.69,-0.04,0.00,0.05,8.94,63.50,86.19,-1.37,2.37,1.25,5,4
1772046799.914916,4138463,0.29,-0.05,0.07,-158.75,-69.87,82.25,1.75,-1.06,-2.44,-0.08,-0.04,0.01,9.44,63.38,86.00,-0.56,0.00,0.69,5,3
1772046800.106020,4138655,0.29,-0.11,0.13,-160.19,-69.87,83.69,8.94,3.00,0.56,-0.03,0.07,-0.09,9.44,63.31,86.06,2.00,0.81,-0.06,6,3
1772046800.297557,4138846,0.34,-0.02,0.08,-161.25,-69.56,84.37,-0.69,1.81,0.81,-0.04,0.08,-0.01,9.38,63.38,86.06,0.69,-0.31,-0.50,5,3
1772046800.488357,4139037,0.33,-0.04,0.10,-161.44,-69.25,84.19,-1.50,3.31,0.19,-0.03,0.00,0.01,9.25,63.25,86.00,0.19,-0.69,-0.50,4,2
1772046800.679692,4139228,0.30,-0.08,0.08,-161.50,-68.87,83.81,-1.50,0.06,-0.06,-0.05,-0.02,0.03,9.25,63.19,86.00,0.25,0.31,0.62,6,2
1772046800.871346,4139420,0.29,-0.03,0.08,-161.12,-69.00,83.44,-2.69,-2.19,0.44,0.00,-0.02,0.10,9.31,63.19,86.00,-0.13,0.56,-0.25,6,1
1772046801.063023,4139612,0.28,0.01,0.18,-160.25,-69.37,82.69,-1.69,-2.94,0.88,-0.08,0.00,-0.04,9.19,63.38,86.00,0.44,0.56,0.44,6,1
1772046801.252273,4139801,0.28,-0.03,0.10,-159.81,-69.56,82.56,1.62,1.56,0.50,-0.04,0.01,0.02,9.19,63.31,86.06,0.06,0.44,0.37,6,1
1772046801.442551,4139991,0.19,-0.02,0.14,-160.31,-69.44,83.06,3.25,0.00,0.44,-0.10,0.00,0.07,9.25,63.19,86.06,-0.69,1.00,0.13,6,2
1772046801.634001,4140183,0.27,-0.01,0.08,-161.19,-69.06,84.31,9.75,1.69,2.69,-0.07,0.00,0.11,9.31,63.00,86.00,-0.44,1.19,-0.44,6,2
1772046801.826012,4140375,0.26,-0.07,0.04,-162.00,-68.75,85.31,-0.81,1.44,-0.81,-0.06,-0.03,0.09,9.31,62.94,86.00,-0.19,0.50,0.31,6,2
1772046802.018228,4140567,0.30,-0.16,0.06,-162.12,-68.62,85.31,-0.81,-0.37,0.25,-0.11,0.00,0.03,9.31,63.00,86.00,0.00,-1.06,-0.62,6,2
1772046802.207678,4140756,0.27,0.06,0.14,-161.31,-68.81,84.56,-1.44,0.25,0.19,0.01,-0.04,0.01,9.13,63.13,86.12,0.00,-0.94,-0.62,6,2
1772046802.397168,4140946,0.27,-0.12,0.13,-160.81,-68.87,84.19,-2.75,-0.75,0.75,-0.08,0.02,0.06,9.06,63.13,86.12,0.19,-0.19,-0.19,7,2
1772046802.589662,4141138,0.33,0.13,0.08,-160.06,-69.25,82.06,-12.44,-0.62,-2.56,-0.08,0.00,0.00,9.06,63.19,86.12,0.37,-1.06,-0.50,5,2
1772046802.780559,4141329,0.24,-0.15,0.14,-159.31,-69.37,81.56,1.06,-0.81,-0.56,-0.07,0.05,0.00,9.00,63.19,86.19,0.50,0.50,0.25,5,2
1772046802.972610,4141521,0.29,-0.16,0.09,-159.50,-69.31,81.56,2.56,1.56,-0.62,-0.06,0.02,0.02,8.94,63.19,86.06,0.50,1.12,1.44,5,2
1772046803.163347,4141712,0.23,0.00,0.15,-159.56,-69.12,81.62,1.69,-0.62,0.25,-0.20,0.02,0.05,9.00,63.00,85.94,-0.94,0.25,1.44,5,2
1772046803.353666,4141903,0.35,-0.22,0.07,-160.44,-68.56,82.69,9.94,0.62,1.19,-0.09,0.00,0.14,9.25,62.63,85.94,-0.44,2.62,1.25,4,2
1772046803.545706,4142094,0.28,0.01,0.00,-161.75,-68.44,83.75,0.37,1.75,-1.19,-0.04,0.01,0.00,9.50,62.63,85.81,-0.13,-0.44,0.19,4,2
1772046803.735686,4142284,0.29,-0.17,0.13,-162.44,-68.44,84.19,-1.75,-2.19,-0.25,-0.06,-0.04,0.06,9.50,62.63,85.81,0.13,-0.25,-0.37,4,2
1772046803.927631,4142476,0.28,-0.08,0.09,-161.25,-68.81,83.44,-4.06,-2.12,0.06,-0.05,0.02,0.09,9.38,62.69,85.87,-0.37,-1.19,-0.37,5,2
1772046804.119342,4142668,0.19,-0.06,0.15,-160.31,-69.25,82.31,-3.94,-2.87,0.75,-0.12,0.00,0.01,9.31,62.81,85.75,0.50,0.69,0.56,5,2
1772046804.311292,4142860,0.32,0.00,0.12,-159.69,-69.31,81.94,2.25,1.69,-0.13,-0.02,0.08,0.02,9.44,62.81,85.81,-0.44,-0.44,0.19,5,2
1772046804.500603,4143049,0.27,0.04,0.12,-160.37,-69.12,82.37,3.75,2.62,0.06,-0.07,-0.02,0.00,9.50,62.81,85.81,-1.44,0.31,-0.06,4,2
1772046804.690423,4143239,0.31,-0.09,0.08,-161.69,-68.94,83.69,-1.12,-0.06,-1.87,-0.13,-0.02,0.05,9.56,62.81,85.75,0.62,-0.13,0.44,4,2
1772046804.882226,4143431,0.36,-0.18,0.06,-162.12,-68.87,83.87,-0.31,1.00,-1.06,-0.06,0.04,0.03,9.63,62.81,85.81,0.81,0.75,0.37,4,2
1772046805.074412,4143623,0.39,-0.07,0.10,-161.25,-69.19,82.56,-18.19,-2.75,-6.37,-0.11,0.06,0.00,9.56,62.81,85.75,0.37,-1.31,0.00,4,2
1772046805.265879,4143814,0.23,-0.08,0.16,-160.44,-69.62,81.31,1.75,-0.44,0.06,-0.07,0.04,-0.01,9.63,62.75,85.69,-0.69,-0.13,-0.50,4,3
1772046805.456824,4144006,0.25,0.17,0.17,-160.62,-69.56,81.56,1.50,2.06,0.44,-0.03,-0.04,0.08,9.69,62.69,85.69,-1.12,-1.81,-0.75,4,3
1772046805.648331,4144197,0.25,-0.11,0.03,-161.31,-68.87,83.37,7.37,1.31,1.56,-0.04,0.00,0.11,9.63,62.69,85.75,0.06,0.88,0.56,4,3
1772046805.840469,4144389,0.30,-0.13,0.06,-162.25,-68.56,84.69,4.12,1.00,-0.13,-0.11,0.05,0.00,9.69,62.69,85.81,0.25,-0.44,-0.44,4,2
1772046806.031941,4144580,0.25,-0.13,0.12,-162.62,-68.56,85.00,-1.37,-0.37,0.75,-0.10,0.02,0.04,9.69,62.69,85.81,-0.37,-0.56,-0.56,4,3
1772046806.223455,4144772,0.31,-0.12,0.12,-162.12,-68.56,84.56,-1.62,-0.88,1.31,-0.08,0.01,0.04,9.56,62.75,85.81,0.44,0.13,0.00,3,3
1772046806.413042,4144962,0.21,-0.06,0.09,-161.31,-68.87,83.19,-13.69,-2.12,-4.31,-0.05,0.00,0.05,9.56,62.81,85.81,0.00,-0.25,0.62,3,3
1772046806.605399,4145154,0.24,-0.09,0.18,-160.06,-69.25,82.00,3.19,-1.06,0.69,-0.07,0.06,0.06,9.56,62.81,85.81,-0.13,0.19,-0.31,3,2
1772046806.795572,4145344,0.32,0.01,0.10,-160.19,-69.31,82.19,0.81,0.56,-0.44,-0.10,0.05,0.04,9.63,62.81,85.81,0.56,1.06,-0.13,4,3
1772046806.987232,4145536,0.29,-0.06,0.04,-160.25,-69.25,82.19,-0.31,0.69,0.13,-0.04,0.04,0.05,9.56,62.75,85.81,0.06,0.31,0.06,4,2
1772046807.178712,4145727,0.30,-0.06,0.10,-160.37,-69.25,82.19,-0.37,-0.44,-0.06,-0.07,-0.02,0.18,9.69,62.69,85.75,0.06,0.37,0.69,4,2
1772046807.367865,4145917,0.32,0.09,0.14,-160.44,-69.19,82.19,0.31,-1.44,-0.94,0.01,-0.10,0.06,9.88,62.81,85.56,2.31,-0.62,1.25,4,2
1772046807.558450,4146107,0.22,-0.23,0.13,-161.87,-69.44,83.44,0.50,1.25,0.31,-0.07,0.09,-0.03,9.75,62.94,85.31,-1.81,1.00,-1.00,3,2
1772046807.748965,4146298,0.24,-0.16,0.03,-161.62,-69.25,83.25,0.88,2.44,-1.31,-0.08,0.03,0.16,9.69,62.69,85.37,0.37,0.69,-0.44,3,2
1772046807.939696,4146488,0.42,0.07,0.04,-161.87,-68.56,82.87,-2.06,-0.19,0.31,-0.08,0.06,-0.04,9.69,62.75,85.44,-0.19,-1.56,-0.13,3,2
1772046808.130150,4146679,0.24,-0.14,0.15,-161.75,-68.94,83.06,0.13,-0.88,0.00,-0.05,0.00,0.07,9.75,62.81,85.37,0.31,-0.13,0.56,3,2
1772046808.320837,4146870,0.27,-0.13,0.07,-161.81,-69.00,83.06,0.56,-0.69,-0.06,-0.02,0.02,0.02,9.75,62.81,85.37,0.00,0.88,0.56,4,2
1772046808.512157,4147061,0.31,-0.04,0.10,-161.75,-69.00,82.94,-0.75,-0.62,0.31,-0.06,0.03,0.07,9.75,62.75,85.37,0.31,0.31,0.00,4,3
1772046808.702674,4147251,0.26,0.04,0.13,-161.31,-69.12,82.56,-1.00,-1.00,-0.13,-0.14,0.10,0.05,9.75,62.75,85.37,0.31,-0.19,-0.31,3,2
1772046808.893927,4147443,0.24,0.03,0.10,-160.62,-69.31,82.12,-1.00,-1.06,0.69,-0.09,0.00,0.05,9.69,62.75,85.37,0.13,-0.31,0.13,4,3
1772046809.085350,4147634,0.30,-0.10,0.11,-160.44,-69.37,82.12,-1.00,-1.00,0.25,-0.06,0.03,0.08,9.69,62.81,85.37,1.12,-0.06,-0.13,4,3
1772046809.276211,4147825,0.35,0.15,0.17,-159.81,-69.50,81.62,-0.81,0.75,0.69,-0.06,0.02,0.04,9.63,62.94,85.37,-0.94,-1.87,-1.37,5,3
1772046809.466965,4148016,0.24,0.05,0.19,-160.12,-69.44,82.06,2.94,1.75,0.00,-0.02,0.01,0.11,9.63,62.94,85.44,0.50,0.62,1.25,5,3
1772046809.656929,4148206,0.24,-0.22,0.10,-162.00,-69.25,83.87,11.13,0.62,-0.94,-0.11,0.07,0.09,9.75,62.88,85.37,-0.69,-0.19,-1.62,5,3
1772046809.848092,4148397,0.40,0.15,0.03,-163.31,-68.87,84.87,-3.75,2.06,1.37,-0.11,0.00,-0.04,9.69,62.88,85.44,-0.13,-1.31,0.19,5,2
1772046810.038278,4148587,0.22,-0.14,0.10,-163.19,-68.94,84.81,0.56,-1.87,0.19,-0.06,-0.03,0.06,9.81,62.88,85.37,0.44,0.62,0.81,5,3
1772046810.227931,4148777,0.34,-0.03,0.09,-162.87,-69.00,84.50,-1.06,-1.56,0.19,-0.10,-0.07,0.01,9.88,62.88,85.31,-0.19,0.13,0.50,5,2
1772046810.419438,4148968,0.23,-0.13,0.16,-162.62,-69.37,84.62,0.37,-1.50,0.00,-0.12,0.00,0.04,9.94,62.88,85.31,0.37,-0.31,-0.44,5,2
1772046810.609629,4149158,0.32,-0.03,0.08,-162.06,-69.25,84.00,-1.94,0.75,0.50,-0.12,0.03,-0.01,9.81,62.81,85.31,0.25,0.06,-0.25,5,2
1772046810.800173,4149349,0.31,-0.03,0.05,-161.12,-69.19,83.25,-1.87,0.19,0.37,-0.06,0.05,0.07,9.75,62.81,85.31,0.06,-1.12,-0.37,4,2
1772046810.989622,4149538,0.31,0.20,0.15,-160.62,-69.37,81.94,-5.75,-2.62,-1.31,-0.06,0.01,0.00,9.81,62.94,85.31,-0.06,-1.00,-0.37,3,2
1772046811.178970,4149728,0.24,0.03,0.10,-160.25,-69.69,82.00,-0.13,1.19,0.81,-0.03,0.02,0.03,9.63,63.06,85.56,-1.12,-0.50,-1.12,2,1
1772046811.370678,4149920,0.15,0.02,0.20,-160.62,-69.75,82.56,1.94,0.37,-2.12,-0.08,-0.08,0.02,9.75,63.00,85.31,1.56,0.06,0.88,2,1
1772046811.562078,4150111,0.34,-0.22,0.05,-162.56,-69.31,83.94,2.56,4.81,0.25,-0.04,0.16,-0.09,9.44,63.00,85.19,-2.06,0.37,-2.06,3,2
1772046811.752892,4150302,0.23,0.11,0.08,-161.87,-69.00,83.69,-0.81,-0.56,0.56,-0.06,-0.05,0.17,9.44,62.81,85.31,-0.50,1.50,1.06,4,3
1772046811.942471,4150491,0.38,-0.18,0.09,-162.62,-68.87,84.25,2.31,-1.00,-0.81,-0.04,0.00,-0.06,9.69,62.81,85.25,0.13,-0.31,0.37,4,3
1772046812.132465,4150681,0.27,-0.07,0.13,-162.44,-69.19,84.31,-0.13,-1.06,1.25,-0.04,-0.04,0.07,9.69,62.75,85.31,0.00,1.25,0.88,5,3
1772046812.324389,4150873,0.30,-0.11,0.09,-162.31,-69.19,84.31,-0.75,0.56,-0.25,-0.07,0.00,0.01,9.69,62.69,85.25,0.88,-0.13,0.00,5,3
1772046812.515406,4151064,0.31,0.21,0.12,-161.94,-69.31,82.56,-7.94,-0.37,-0.50,-0.10,0.00,0.00,9.56,62.75,85.19,0.25,0.56,0.06,5,3
1772046812.706454,4151255,0.28,0.10,0.10,-160.56,-69.44,81.62,-1.81,-0.06,0.25,-0.01,0.01,-0.01,9.56,62.75,85.25,-1.19,-0.19,0.56,5,3
1772046812.896033,4151445,0.26,0.02,0.13,-160.19,-69.50,81.56,1.75,-0.88,-0.69,-0.09,0.00,-0.04,9.88,62.81,85.44,-0.37,-0.31,0.25,5,3
1772046813.085605,4151634,0.26,-0.08,0.12,-161.00,-69.75,82.19,0.19,-0.44,-1.31,-0.06,-0.04,-0.05,10.00,63.00,85.31,1.37,-0.94,0.25,5,3
1772046813.277456,4151826,0.31,-0.04,0.11,-161.00,-69.81,82.19,-1.06,-0.06,2.37,-0.11,0.04,0.04,9.75,63.06,85.37,1.69,0.37,-0.19,6,3
1772046813.468697,4152018,0.25,0.14,0.12,-160.31,-69.75,81.50,-0.19,0.19,0.31,-0.02,-0.02,0.01,9.63,63.06,85.25,-0.25,0.75,0.19,5,3
1772046813.659637,4152209,0.32,-0.13,0.07,-160.25,-69.62,82.50,8.25,1.37,3.56,-0.10,-0.02,0.11,9.69,62.88,85.37,0.00,-0.19,0.37,4,2
1772046813.849417,4152398,0.28,-0.07,0.09,-161.19,-69.37,83.44,2.00,0.69,-1.87,-0.07,0.02,-0.02,9.94,62.81,85.31,0.13,-0.44,-0.44,4,3
1772046814.040154,4152589,0.27,-0.08,0.12,-162.31,-69.44,84.31,0.06,0.62,0.56,-0.07,-0.01,0.05,9.94,62.75,85.31,0.44,-0.31,-0.44,4,3
1772046814.231770,4152781,0.28,-0.05,0.10,-162.31,-69.31,84.25,1.12,-0.44,0.31,-0.06,0.04,0.04,9.88,62.81,85.31,-0.37,-0.13,0.25,5,3
1772046814.422657,4152972,0.29,-0.25,0.11,-162.62,-69.31,84.44,0.62,0.69,-0.19,-0.08,0.02,0.06,9.81,62.88,85.25,0.06,-0.81,-0.37,5,2
1772046814.613511,4153162,0.35,-0.03,0.11,-162.69,-69.12,84.25,0.75,-0.19,0.13,-0.07,0.02,0.02,9.88,63.00,85.31,-0.75,0.00,-0.13,5,2
1772046814.804290,4153353,0.25,-0.09,0.08,-162.62,-69.19,84.31,-0.44,-0.75,0.06,-0.09,0.00,0.02,9.88,63.00,85.31,0.81,-0.13,0.37,5,2
1772046814.993943,4153543,0.33,-0.15,0.03,-161.75,-69.50,83.44,-7.87,-3.12,-1.50,-0.04,0.01,0.04,9.88,63.06,85.31,0.69,0.06,-0.25,5,2
1772046815.185387,4153734,0.18,-0.05,0.15,-160.12,-69.94,82.06,-2.62,-2.06,1.75,-0.02,-0.02,0.06,9.81,63.06,85.25,0.44,0.50,-0.25,5,2
1772046815.376102,4153925,0.39,0.07,0.09,-159.62,-69.94,81.50,-1.69,0.31,1.75,0.02,0.12,-0.01,9.81,63.06,85.25,-2.19,0.13,-1.62,5,2
1772046815.566661,4154116,0.30,0.17,0.13,-157.81,-70.06,81.00,1.62,0.19,2.44,0.00,0.04,0.02,9.88,62.81,85.69,-1.81,-1.75,-0.31,5,2
1772046815.756633,4154305,0.11,-0.08,0.15,-158.31,-70.37,81.62,2.62,-0.81,-3.62,0.00,-0.01,-0.01,10.25,62.81,85.44,0.75,-0.50,0.25,4,2
1772046815.946599,4154496,0.35,-0.09,0.06,-160.25,-70.12,82.94,2.25,3.12,1.19,-0.08,0.10,-0.02,10.19,62.75,85.50,0.37,0.62,0.06,4,2
1772046816.138519,4154687,0.32,-0.03,0.02,-160.37,-69.75,82.87,0.50,2.06,-0.25,-0.13,0.08,-0.01,10.19,62.75,85.56,-0.88,-0.88,-0.44,3,1
1772046816.329257,4154878,0.27,-0.06,0.10,-160.56,-69.69,82.94,0.00,-1.87,0.69,0.00,-0.01,0.13,10.13,62.75,85.56,-0.44,0.75,0.06,4,1
1772046816.520038,4155069,0.24,-0.10,0.09,-160.19,-69.87,82.87,-0.37,0.25,0.37,-0.07,0.01,0.01,10.13,62.81,85.62,0.37,0.44,0.25,3,1
1772046816.711301,4155260,0.30,-0.12,0.08,-160.00,-69.87,82.62,-0.94,-0.94,0.75,-0.15,0.07,0.00,10.06,62.88,85.62,-0.25,-2.00,-1.06,4,2
1772046816.900576,4155450,0.29,0.13,0.12,-159.19,-70.12,81.50,-5.81,-2.00,-2.44,-0.07,0.07,0.07,10.06,62.94,85.62,0.19,0.56,0.13,4,1
1772046817.092016,4155641,0.27,0.03,0.13,-158.37,-70.44,80.75,-3.25,-1.00,0.00,-0.08,0.03,0.05,10.06,62.94,85.62,0.50,-0.19,0.25,3,2
1772046817.282979,4155832,0.26,-0.03,0.10,-158.06,-70.62,80.50,-0.13,-0.75,-0.25,-0.05,0.04,0.06,10.00,62.94,85.62,0.19,0.25,0.31,3,2
1772046817.474000,4156023,0.36,-0.03,0.11,-158.06,-70.56,80.50,-0.37,0.06,0.06,-0.10,0.06,0.00,10.06,62.94,85.62,-0.13,-0.94,-0.31,3,1
1772046817.664696,4156214,0.20,0.02,0.09,-158.31,-70.56,80.75,-0.13,0.31,-0.37,-0.06,-0.03,0.11,10.13,62.94,85.62,-0.56,0.81,0.13,3,2
1772046817.853915,4156403,0.25,-0.17,0.10,-159.50,-70.25,82.00,10.19,0.75,1.19,-0.09,0.00,0.09,10.13,62.94,85.56,0.56,0.37,0.37,3,2
1772046818.045742,4156595,0.29,-0.12,0.08,-160.81,-70.00,83.19,0.56,-0.25,-0.50,0.00,-0.04,0.19,10.25,62.88,85.50,0.81,1.25,0.88,3,2
1772046818.236511,4156786,0.26,0.02,0.10,-160.81,-69.81,83.25,2.37,0.75,2.94,-0.11,0.02,0.03,10.25,62.94,85.62,0.37,-0.50,0.37,3,2
1772046818.427117,4156977,0.27,-0.07,0.06,-160.87,-69.69,83.56,0.25,0.94,0.19,-0.07,0.04,0.05,10.25,62.94,85.56,0.06,0.81,0.13,3,2
1772046818.618320,4157167,0.24,-0.10,0.08,-160.87,-69.75,83.62,-0.81,-0.88,0.31,-0.11,0.04,0.03,10.25,62.94,85.56,-0.13,-0.62,-0.25,3,2
1772046818.807560,4157357,0.31,-0.14,0.10,-160.37,-69.81,83.25,-1.37,-1.50,0.50,-0.05,0.00,0.06,10.19,63.00,85.56,0.69,0.37,0.19,3,2
1772046818.999452,4157548,0.29,-0.04,0.08,-159.31,-70.25,81.69,-13.00,-1.25,-4.56,-0.11,0.07,0.03,10.19,63.00,85.56,0.44,-0.94,-0.06,4,2
1772046819.190284,4157739,0.23,0.09,0.16,-158.31,-70.69,80.31,2.25,-1.25,0.69,-0.10,0.08,0.07,10.06,63.06,85.62,-0.94,-0.75,-1.19,4,2
1772046819.380598,4157930,0.27,-0.01,0.06,-158.19,-70.56,80.37,1.06,1.69,0.19,-0.08,0.13,0.01,9.75,63.25,85.75,0.25,1.06,1.44,4,2
1772046819.570475,4158120,0.28,-0.04,0.04,-158.31,-70.44,80.31,2.56,1.81,-1.81,-0.08,0.05,0.01,10.19,63.13,85.50,0.06,-0.88,0.69,4,2
1772046819.760003,4158309,0.49,-0.29,0.05,-159.87,-70.19,82.50,9.31,3.06,-0.37,-0.09,0.03,0.00,10.44,63.13,85.31,1.50,-0.31,1.00,4,2
1772046819.952296,4158501,0.24,-0.07,0.17,-161.12,-70.44,83.50,-0.75,-1.75,2.50,-0.09,-0.04,0.13,10.44,63.06,85.25,-0.19,0.00,-0.44,4,2
1772046820.143309,4158692,0.38,-0.03,0.04,-160.81,-70.19,83.12,-2.69,1.50,0.94,-0.08,0.03,0.05,10.25,63.06,85.25,-0.37,0.75,0.44,5,2
1772046820.334395,4158884,0.23,-0.09,0.13,-160.37,-70.25,82.81,0.13,-0.50,-0.37,-0.09,0.01,0.05,10.25,62.94,85.19,0.00,-0.62,-0.06,5,2
1772046820.525567,4159074,0.25,-0.15,0.10,-160.56,-70.12,82.81,-0.50,0.56,-0.19,-0.20,0.01,-0.01,10.19,62.81,85.12,1.25,-1.50,-0.31,5,3
1772046820.714715,4159264,0.22,-0.16,0.09,-160.00,-69.94,82.44,1.25,-1.75,2.44,-0.03,0.09,0.00,10.25,62.75,85.31,-0.56,1.25,-0.13,5,3
1772046820.906346,4159455,0.28,0.01,0.10,-159.12,-70.19,81.94,-1.62,0.62,-0.88,-0.10,-0.02,0.04,10.38,62.69,85.19,-0.19,0.06,0.69,5,3
1772046821.097228,4159646,0.22,-0.06,0.10,-159.75,-70.19,82.44,1.81,-0.62,0.31,-0.14,0.05,0.09,10.25,62.75,85.25,0.13,-0.37,-0.56,5,2
1772046821.287808,4159837,0.31,0.03,0.08,-160.00,-69.94,82.44,0.81,1.06,-0.69,-0.07,0.02,0.07,10.19,62.81,85.25,0.31,0.88,0.13,6,3
1772046821.478996,4160028,0.26,-0.07,0.08,-159.87,-70.00,82.31,-1.12,-0.50,0.75,-0.13,0.02,0.04,10.19,62.88,85.31,-0.69,-1.50,-0.69,6,3
1772046821.668428,4160218,0.28,-0.03,0.11,-159.56,-70.19,82.19,-1.00,-1.37,0.37,-0.13,0.01,0.01,10.19,62.94,85.31,0.13,-0.31,-0.44,7,3
1772046821.860336,4160409,0.28,-0.06,0.10,-158.75,-70.44,81.37,-10.06,-0.44,-2.94,-0.06,0.01,0.05,10.13,63.00,85.31,-0.06,-1.25,-0.13,6,3
1772046822.050954,4160600,0.28,-0.06,0.13,-157.94,-70.69,80.62,-0.13,-1.25,-0.25,-0.07,0.06,0.05,10.13,63.06,85.31,-0.13,0.44,0.50,6,3
1772046822.241746,4160791,0.27,0.01,0.12,-157.94,-70.75,80.69,1.00,-0.25,-0.50,-0.07,0.02,0.06,10.13,63.06,85.37,-0.25,-0.19,-0.25,5,3
1772046822.430884,4160980,0.26,-0.02,0.12,-158.31,-70.69,81.06,1.37,0.94,0.00,-0.09,0.00,0.02,10.13,63.00,85.37,0.62,0.13,0.13,6,2
1772046822.621380,4161171,0.30,-0.27,0.08,-159.06,-70.31,82.37,10.25,0.75,2.62,-0.15,0.03,0.06,10.13,62.88,85.31,-1.12,0.13,-0.19,6,3
1772046822.813106,4161362,0.32,0.05,0.06,-160.12,-70.06,83.06,1.37,2.69,-0.62,-0.05,0.05,0.04,10.19,62.94,85.37,0.13,-0.62,-0.19,6,2
1772046823.004314,4161553,0.31,-0.12,0.06,-161.00,-69.87,83.50,-0.62,-0.88,-0.06,-0.10,0.00,0.04,10.19,62.94,85.37,0.00,0.37,0.00,6,3
1772046823.195356,4161744,0.14,-0.01,0.18,-161.06,-69.75,83.56,1.06,5.75,-0.50,-0.03,0.02,0.00,10.19,62.94,85.37,0.06,-0.50,0.13,6,3
1772046823.384740,4161934,0.42,-0.04,0.08,-162.62,-68.44,84.50,10.13,6.25,3.50,-0.05,0.07,0.04,10.38,62.63,85.19,0.50,1.06,0.94,5,3
1772046823.574999,4162124,0.37,-0.25,0.06,-163.69,-67.87,86.75,7.06,-2.81,2.12,-0.12,0.06,0.13,10.44,62.50,85.31,-1.00,0.06,1.62,5,3
1772046823.766795,4162316,0.25,-0.21,0.09,-165.00,-68.31,88.00,5.50,0.06,-2.62,-0.05,0.01,0.05,10.94,62.44,85.25,-1.31,-0.25,-1.06,4,3
1772046823.958019,4162507,0.24,-0.13,0.11,-166.37,-68.50,89.19,0.19,-0.13,1.12,-0.08,0.06,-0.02,10.69,62.31,85.44,-1.75,2.31,-1.00,4,2
1772046824.148983,4162698,0.27,-0.14,0.04,-165.69,-68.56,89.12,-0.13,-0.31,-1.56,-0.11,0.01,0.04,10.50,62.06,85.50,-0.06,-1.19,-0.56,4,2
1772046824.338604,4162888,0.26,-0.07,0.06,-165.44,-68.62,88.94,-0.69,-1.87,1.25,-0.10,0.06,0.00,10.44,62.13,85.56,0.37,-0.81,-0.88,4,3
1772046824.528023,4163077,0.28,-0.04,0.08,-164.87,-68.69,88.69,1.44,1.81,0.44,-0.12,0.06,-0.07,10.25,62.13,85.69,-0.50,-1.50,-0.62,4,3
1772046824.720287,4163269,0.28,0.03,0.09,-165.12,-68.62,88.94,-0.06,-0.62,0.19,-0.02,-0.02,0.04,10.25,62.13,85.75,-0.94,0.13,-1.00,5,3
1772046824.911315,4163460,0.32,-0.07,0.05,-165.25,-68.56,89.50,3.25,0.62,1.62,-0.07,0.07,0.01,10.06,62.19,85.94,-0.69,-0.50,-1.19,4,2
1772046825.102357,4163652,0.22,-0.03,0.14,-165.25,-68.56,89.94,0.31,0.50,0.31,-0.05,0.07,0.03,10.00,62.13,86.06,-0.37,-0.44,-0.75,4,2
1772046825.292318,4163841,0.33,-0.13,0.07,-166.00,-68.37,90.31,1.37,1.00,-1.75,-0.07,0.09,-0.01,10.00,62.19,86.06,-0.50,0.13,-0.06,4,2
1772046825.482204,4164032,0.23,-0.09,0.06,-166.25,-68.50,90.62,1.00,0.13,-1.69,-0.04,0.01,0.01,10.00,62.13,86.00,0.13,0.37,0.62,5,2
1772046825.674085,4164223,0.27,-0.09,0.12,-166.50,-68.56,90.81,0.69,-1.06,-0.25,-0.10,0.07,0.05,10.00,62.06,86.00,0.00,0.44,-0.13,5,3
1772046825.865312,4164414,0.26,-0.09,0.05,-166.50,-68.56,90.75,-1.06,1.62,-0.37,-0.10,0.10,-0.04,10.00,62.00,86.00,0.37,-0.44,-0.06,5,3
1772046826.055975,4164605,0.33,0.00,0.11,-166.62,-68.25,90.00,-7.44,2.06,-4.12,-0.08,0.03,0.04,10.00,61.88,85.94,0.37,0.50,-0.25,6,3
1772046826.245874,4164795,0.27,-0.13,0.06,-166.56,-67.87,89.31,0.44,2.25,0.44,-0.07,0.07,-0.07,9.94,61.81,86.00,-0.94,0.62,0.44,7,3
1772046826.434957,4164985,0.31,0.03,0.08,-166.37,-67.69,89.31,3.62,0.81,1.12,-0.12,0.06,0.09,10.25,61.69,86.25,-1.37,0.81,0.44,7,3
1772046826.627502,4165177,0.30,-0.23,0.08,-167.44,-67.62,90.75,3.19,-0.75,0.62,-0.10,0.00,0.04,10.56,61.75,86.31,-0.88,-0.44,0.75,7,2
1772046826.818441,4165368,0.31,-0.14,0.10,-167.69,-67.94,91.31,1.94,-2.81,0.19,-0.09,0.00,0.09,10.88,61.81,86.25,-0.94,0.06,0.13,7,2
1772046827.009449,4165559,0.25,-0.14,0.11,-167.37,-68.37,91.62,-0.69,-0.88,1.25,-0.11,0.00,0.14,10.88,61.81,86.25,0.00,0.19,-0.19,7,2
1772046827.199210,4165749,0.33,0.11,0.15,-166.37,-68.31,91.69,8.94,-1.56,4.81,-0.04,0.01,0.04,10.94,61.88,86.31,-1.00,1.06,-0.37,7,3
1772046827.389201,4165938,0.24,-0.18,0.07,-165.06,-68.50,94.37,17.44,-3.06,9.31,-0.10,0.05,0.02,10.88,61.81,86.44,-0.37,-0.88,-0.37,6,3
1772046827.581140,4166130,0.32,-0.22,0.09,-164.94,-68.44,96.00,-3.81,-0.62,0.00,-0.09,0.02,0.02,10.94,61.81,86.37,0.69,-0.19,0.19,6,2
1772046827.772419,4166322,0.22,0.03,0.08,-164.50,-68.12,94.31,-9.31,5.50,-3.25,-0.12,0.03,-0.06,11.00,61.94,86.31,1.37,-2.00,0.13,6,3
1772046827.963180,4166513,0.36,-0.02,0.07,-165.31,-67.37,92.50,-11.56,3.69,-3.06,-0.10,-0.04,0.09,11.13,61.75,86.12,0.25,0.75,1.06,5,2
1772046828.153045,4166702,0.30,0.00,0.09,-164.44,-67.06,90.37,-5.25,1.19,-1.44,-0.15,0.02,0.04,11.13,61.69,86.06,0.88,0.19,-0.19,6,3
1772046828.343757,4166893,0.34,0.04,0.16,-164.31,-66.94,89.81,0.81,-0.69,1.00,-0.01,0.03,0.13,11.00,61.69,86.06,0.13,0.75,-0.25,6,3
1772046828.535038,4167085,0.27,-0.05,0.15,-164.44,-66.94,89.87,-1.69,1.25,-0.19,-0.08,0.02,0.05,10.94,61.81,86.12,0.19,0.06,0.13,6,3
1772046828.726113,4167276,0.31,-0.02,0.13,-164.69,-66.62,89.62,0.13,2.50,-0.94,-0.06,0.02,0.08,11.00,61.81,86.12,-0.31,-0.06,0.13,6,3
1772046828.916937,4167466,0.30,-0.06,0.12,-165.06,-66.37,89.62,-0.94,0.75,0.25,-0.04,0.02,0.12,11.00,61.81,86.12,-0.06,0.44,-0.25,6,3
1772046829.107182,4167656,0.33,-0.16,0.10,-164.69,-66.37,89.12,-2.75,-0.13,-0.94,-0.11,0.03,0.08,10.88,61.94,86.12,-0.13,-0.56,-0.25,6,3
1772046829.296819,4167846,0.35,0.03,0.13,-164.06,-66.37,88.56,1.31,-0.56,1.19,-0.09,0.05,0.08,10.88,61.94,86.12,-0.19,0.25,0.00,6,3
1772046829.488917,4168038,0.29,-0.01,0.12,-164.00,-66.50,88.50,-0.69,-0.88,-0.88,-0.09,0.04,0.04,10.88,61.94,86.12,-0.13,-0.44,-0.37,6,4
1772046829.679938,4168229,0.32,-0.18,0.05,-165.56,-66.87,89.37,-1.31,-1.31,-3.31,-0.10,0.09,0.02,10.94,62.00,86.12,-0.13,-1.00,-0.06,5,3
1772046829.870650,4168420,0.28,-0.29,0.09,-167.44,-68.00,87.44,-36.44,-8.06,-13.31,-0.17,0.06,0.09,11.31,61.94,85.81,0.56,-2.06,2.44,5,3
1772046830.060394,4168610,0.10,0.30,0.24,-163.12,-69.75,80.50,-15.63,-2.94,1.62,-0.03,0.01,0.08,12.25,61.75,84.81,2.94,-2.81,2.69,5,3
1772046830.249916,4168799,0.36,0.27,0.31,-158.44,-69.94,77.19,-9.75,-8.25,6.31,0.00,0.01,-0.08,12.50,62.00,84.44,1.69,0.44,0.44,6,4
1772046830.442026,4168991,0.02,0.02,0.30,-153.50,-70.87,75.50,3.19,1.94,2.69,-0.20,0.17,-0.17,12.25,62.06,84.62,-5.87,-1.37,-2.00,6,4
1772046830.633053,4169182,0.27,-0.03,0.10,-154.94,-70.44,77.75,18.00,6.06,-3.50,-0.13,-0.09,0.18,12.31,61.69,84.31,3.56,-0.25,0.37,7,4
1772046830.823768,4169373,0.27,-0.42,0.11,-162.69,-69.44,83.87,16.12,8.63,-3.50,0.02,0.00,0.08,11.81,61.94,83.81,3.25,0.00,1.06,6,4
1772046831.013748,4169563,0.43,0.00,0.09,-165.44,-68.25,86.37,11.19,3.19,6.69,-0.11,0.15,0.22,11.06,61.94,84.44,-0.19,2.87,0.75,7,4
1772046831.203738,4169753,0.47,-0.15,0.01,-165.81,-67.62,87.62,1.69,3.87,-3.25,-0.06,0.02,0.07,11.31,61.63,84.31,-2.12,-0.13,-0.44,7,3
1772046831.395630,4169945,0.27,-0.21,0.11,-166.44,-67.62,88.31,-0.37,-2.44,-0.44,-0.09,-0.07,0.15,11.38,61.50,84.25,2.75,0.88,1.06,7,3
1772046831.586680,4170136,0.46,0.18,0.13,-165.81,-67.62,87.19,-4.75,-2.12,4.81,0.08,0.05,0.12,11.25,61.63,84.44,-2.62,3.31,-1.31,8,4
1772046831.777684,4170327,0.21,-0.06,0.09,-163.81,-68.00,86.50,-4.50,2.75,-0.25,-0.01,0.00,-0.01,11.06,61.38,84.56,-2.25,-0.06,0.25,8,4
1772046831.967810,4170517,0.38,0.00,0.16,-163.56,-67.81,85.62,-3.56,-2.56,-1.12,-0.01,-0.03,0.01,11.31,61.56,84.37,1.06,0.19,0.06,7,3
1772046832.158375,4170707,0.18,-0.14,0.05,-162.44,-68.25,84.87,-6.50,1.75,-0.19,-0.04,0.05,-0.07,11.19,61.56,84.31,-1.25,-1.12,-1.06,6,2
1772046832.349513,4170899,0.24,0.44,0.22,-160.50,-68.62,80.00,-21.62,0.56,-4.25,-0.07,0.05,-0.20,11.06,61.81,84.44,-3.75,-0.37,-3.62,5,3
1772046832.540188,4171090,0.31,0.11,0.22,-158.00,-68.69,78.44,10.25,-0.44,0.44,-0.09,-0.14,0.16,11.19,61.50,84.31,3.06,2.50,4.06,5,2
1772046832.731481,4171280,0.30,-0.49,0.04,-161.69,-68.37,83.12,18.37,2.75,-0.44,-0.09,0.22,-0.28,11.31,61.56,83.94,-2.44,-0.94,-2.37,6,2
1772046832.921357,4171471,0.16,-0.26,0.10,-163.25,-68.37,85.37,0.75,-0.44,1.69,-0.08,-0.06,0.11,11.25,61.31,84.00,-1.69,2.50,-0.06,5,2
1772046833.111521,4171661,0.39,-0.16,0.05,-163.19,-68.00,85.19,1.69,2.19,0.13,-0.05,0.05,-0.01,11.44,61.13,84.12,-0.44,0.44,1.12,5,2
1772046833.303084,4171852,0.26,-0.14,0.10,-163.50,-67.94,85.37,1.56,-0.44,-0.25,-0.05,0.02,-0.02,11.63,61.06,84.12,-0.69,-0.50,0.06,5,2
1772046833.493944,4172043,0.31,-0.19,0.10,-163.75,-68.00,85.50,-0.06,-1.25,-0.06,-0.13,0.01,-0.01,11.63,61.13,84.12,0.44,0.06,-0.62,5,2
1772046833.684640,4172234,0.37,-0.11,0.06,-163.12,-68.00,84.94,-3.37,-0.19,0.44,-0.04,0.00,0.01,11.63,61.19,84.12,0.37,-0.50,0.19,5,2
1772046833.875944,4172424,0.19,0.13,0.24,-161.69,-68.37,81.44,-21.19,-1.62,-4.81,-0.04,0.07,-0.02,11.63,61.44,84.12,-0.13,-1.19,-0.69,4,2
1772046834.064976,4172614,0.32,0.14,0.12,-159.62,-68.31,78.50,-2.69,0.44,1.25,-0.06,0.04,-0.03,11.63,61.44,84.06,0.88,-1.06,-0.50,4,3
1772046834.256605,4172806,0.22,0.12,0.14,-159.50,-68.31,78.50,2.06,-1.37,1.06,-0.09,0.06,0.05,11.56,61.44,84.19,-0.88,-0.06,-1.31,4,2
1772046834.447498,4172997,0.23,-0.09,0.11,-159.81,-67.87,80.37,15.50,2.50,4.75,-0.06,0.10,-0.05,11.38,61.38,84.37,-0.69,0.06,0.25,3,2
1772046834.638010,4173187,0.24,-0.13,0.13,-161.12,-67.56,82.31,0.37,0.00,-2.19,-0.06,0.00,0.00,11.56,61.31,84.37,-1.19,-1.87,0.19,3,2
1772046834.828919,4173378,0.30,-0.07,0.14,-161.50,-67.44,82.50,-0.62,-0.37,-0.81,-0.03,-0.03,0.03,11.81,61.19,84.25,0.31,0.88,0.69,3,2
1772046835.019770,4173569,0.32,-0.21,0.09,-161.94,-67.50,82.69,-1.12,0.37,-0.25,-0.07,0.03,-0.01,11.81,61.13,84.25,0.37,-0.56,-0.31,4,3
1772046835.210721,4173760,0.25,-0.07,0.11,-161.06,-67.62,81.69,-6.12,-1.25,0.62,-0.09,0.08,-0.01,11.69,61.19,84.19,0.75,-1.50,-0.75,4,3
1772046835.401817,4173951,0.36,0.07,0.16,-160.00,-67.87,79.69,-10.94,-2.44,-2.37,-0.09,0.07,-0.07,11.63,61.38,84.19,0.06,-2.25,-0.81,4,3
1772046835.591799,4174141,0.22,-0.11,0.19,-159.12,-68.44,78.87,3.56,-0.50,-0.37,-0.01,0.01,0.05,11.63,61.50,84.19,-0.56,-0.31,0.31,3,2
1772046835.782000,4174331,0.22,-0.20,0.16,-160.25,-68.62,79.62,-0.94,0.25,-1.62,-0.03,0.01,-0.06,11.69,61.63,84.00,-0.50,-1.00,-0.69,4,2
1772046835.972607,4174522,0.25,-0.05,0.19,-159.87,-68.62,79.44,-0.69,-1.25,0.25,-0.08,0.06,0.01,11.44,61.69,84.12,-0.31,-0.06,-0.69,4,2
1772046836.163550,4174713,0.35,0.04,0.11,-159.62,-68.44,79.12,1.87,1.44,-1.81,-0.09,0.06,0.13,11.44,61.69,84.12,1.37,1.12,0.94,4,2
1772046836.354786,4174904,0.30,0.03,0.08,-160.25,-68.37,79.50,2.94,-0.81,0.69,-0.09,0.11,0.00,11.56,61.69,84.19,-0.31,-0.31,-0.25,5,2
1772046836.545387,4175095,0.30,0.11,0.15,-160.37,-68.37,80.19,9.00,1.12,4.56,-0.01,-0.08,-0.10,11.75,61.63,84.25,-1.06,0.69,-0.06,5,2
1772046836.735035,4175285,0.25,-0.27,0.09,-161.69,-68.19,82.62,8.38,1.75,0.94,-0.11,0.00,0.06,11.75,61.38,84.31,-0.19,0.44,-0.25,5,2
1772046836.926114,4175476,0.36,-0.11,0.06,-162.69,-67.81,83.12,-0.31,0.56,-0.25,-0.05,0.00,0.03,11.81,61.31,84.25,0.69,0.19,0.56,5,2
1772046837.117394,4175667,0.28,-0.07,0.11,-162.50,-67.87,82.87,-2.25,-0.81,1.69,-0.09,0.00,0.04,11.69,61.31,84.25,0.94,1.19,-0.37,5,3
1772046837.308292,4175858,0.34,-0.03,0.13,-161.56,-67.81,82.25,-1.62,-0.25,1.62,-0.05,0.03,0.02,11.44,61.38,84.31,-0.25,-0.56,-0.31,5,3
1772046837.499079,4176048,0.34,-0.07,0.14,-161.12,-67.81,81.75,-0.75,-1.06,0.00,-0.04,0.03,-0.03,11.38,61.44,84.44,-0.50,-0.37,-1.56,6,3
1772046837.688964,4176238,0.26,-0.17,0.12,-160.31,-68.25,81.25,-4.00,-2.75,1.31,-0.16,-0.01,0.07,10.75,61.50,84.87,-0.75,-2.94,-2.69,6,3
1772046837.878428,4176428,0.35,-0.09,0.01,-159.50,-68.37,79.37,-11.31,0.13,-3.94,-0.05,0.06,0.02,9.81,62.38,85.62,-0.81,-5.44,-4.56,6,3
1772046838.070387,4176620,0.26,0.12,0.18,-157.69,-68.87,77.50,-1.56,-4.19,2.87,-0.02,0.05,-0.06,8.75,62.88,86.00,0.69,-0.50,-1.44,5,3
1772046838.261150,4176811,0.15,0.00,0.21,-155.62,-69.56,77.25,2.69,-2.50,0.50,-0.11,0.00,0.04,8.56,62.81,86.12,-0.56,0.44,0.31,5,4
1772046838.451914,4177002,0.15,0.02,0.13,-155.50,-69.62,77.81,3.12,2.12,0.00,-0.26,0.16,0.02,9.19,62.69,85.69,0.94,-2.50,2.37,4,3
1772046838.642016,4177192,0.37,0.02,0.05,-158.25,-69.12,80.00,16.25,4.94,0.06,0.05,0.01,-0.12,9.69,62.69,85.12,-0.50,2.00,0.37,4,3
1772046838.831508,4177381,0.15,-0.19,0.07,-160.37,-69.00,83.31,5.06,-1.37,2.62,-0.10,0.02,0.12,9.56,62.25,85.44,-1.50,3.44,0.37,6,3
1772046839.023823,4177573,0.33,-0.08,0.06,-160.94,-68.81,83.94,2.12,2.44,-2.56,0.05,-0.08,0.09,9.88,61.94,85.44,-0.25,0.13,0.50,7,3
1772046839.214677,4177764,0.25,-0.11,0.10,-162.75,-68.81,85.06,1.87,-0.25,0.75,-0.04,0.01,0.03,9.88,61.88,85.56,-0.62,2.25,0.13,7,3
1772046839.405904,4177955,0.25,-0.13,0.11,-163.19,-68.75,85.31,-0.19,1.56,-1.75,-0.05,0.02,0.09,9.75,61.69,85.62,-1.69,-3.06,-1.50,6,3
1772046839.595962,4178145,0.27,-0.09,0.07,-163.44,-68.44,85.00,-4.12,-2.56,-1.12,-0.10,0.00,0.03,9.94,61.81,85.50,0.69,-1.37,-0.88,6,3
1772046839.785322,4178335,0.34,-0.14,0.12,-161.87,-68.62,83.81,-5.31,-3.44,3.50,-0.03,0.00,0.12,9.69,61.94,85.62,1.06,-0.06,0.31,7,3
1772046839.977402,4178527,0.27,-0.15,0.12,-159.87,-69.00,81.87,-7.25,-1.69,0.19,-0.08,0.01,-0.02,9.50,62.00,85.62,1.12,-0.06,-0.13,7,3
1772046840.168487,4178718,0.32,0.05,0.14,-157.06,-69.19,79.50,-4.62,-1.56,3.25,-0.07,0.06,0.07,9.06,62.00,85.69,-0.75,0.75,-1.75,6,2
1772046840.359159,4178909,0.31,0.09,0.18,-154.37,-69.31,78.06,-6.12,-2.25,-1.06,-0.09,0.02,0.03,8.88,62.06,85.69,0.00,0.25,0.19,6,2
1772046840.549286,4179099,0.30,-0.03,0.14,-154.37,-69.31,77.44,-0.81,2.44,0.81,-0.14,0.00,-0.04,8.69,62.06,85.56,2.12,0.37,-0.44,5,2
1772046840.739060,4179289,0.30,0.05,0.13,-155.12,-68.87,77.44,2.50,2.81,-1.00,-0.09,0.08,-0.07,8.50,62.00,85.56,0.44,-0.13,-1.31,4,1
1772046840.930694,4179480,0.14,0.11,0.17,-155.69,-68.69,77.87,0.75,2.25,0.75,-0.02,-0.02,0.10,8.25,61.88,85.56,0.25,1.06,0.88,3,1
1772046841.121590,4179671,0.37,0.00,0.10,-157.06,-68.06,79.19,9.06,2.56,1.50,-0.07,0.03,0.16,8.38,61.75,85.56,-0.25,2.00,1.44,3,2
1772046841.312865,4179862,0.33,-0.17,0.08,-158.62,-67.62,80.94,3.69,1.94,-1.69,-0.09,0.03,0.02,8.75,61.56,85.44,-0.69,-0.31,0.75,4,2
1772046841.502857,4180052,0.31,-0.20,0.12,-159.81,-67.69,81.81,1.69,-1.87,-0.25,-0.08,-0.01,0.03,8.88,61.50,85.37,0.06,0.31,0.31,4,2
1772046841.693199,4180243,0.39,-0.15,0.08,-159.25,-68.06,81.12,-10.56,-3.00,-3.00,-0.06,0.06,0.02,8.88,61.56,85.37,-0.25,0.06,0.56,4,2
1772046841.884603,4180434,0.20,0.25,0.22,-157.44,-69.19,78.75,-3.00,-5.19,-1.69,-0.07,0.00,0.11,8.94,61.69,85.25,0.50,-0.06,0.13,5,2
1772046842.075617,4180625,0.29,0.02,0.12,-157.00,-69.69,78.94,3.06,1.44,-1.37,-0.06,0.04,-0.02,9.13,61.81,85.37,-0.25,-0.94,0.06,5,3
1772046842.266607,4180816,0.25,-0.11,0.18,-158.44,-69.62,80.12,4.37,2.94,-1.69,-0.02,-0.01,0.04,8.94,61.88,85.50,-1.94,-2.75,-1.62,4,3
1772046842.456107,4181006,0.41,-0.16,0.11,-159.81,-69.06,81.25,4.56,3.00,1.50,-0.05,0.05,0.02,8.69,61.94,85.62,0.31,1.00,0.44,5,3
1772046842.646742,4181196,0.28,0.08,0.13,-159.31,-68.94,81.00,-2.12,-0.94,-0.31,-0.07,0.03,0.03,8.81,61.88,85.62,-0.19,-0.50,0.00,5,3
1772046842.837790,4181388,0.30,-0.05,0.09,-159.37,-69.00,81.00,-0.31,0.06,0.44,0.02,-0.02,0.05,8.94,61.88,85.62,0.62,1.56,0.75,6,3
1772046843.029073,4181579,0.22,-0.13,0.11,-159.25,-69.12,81.00,0.06,-1.81,0.00,-0.14,0.02,0.07,9.00,61.88,85.62,-0.37,-0.37,-0.19,6,3
1772046843.220176,4181769,0.26,-0.05,0.11,-158.69,-69.25,80.44,-5.31,-0.44,-1.56,-0.10,0.05,-0.01,9.00,61.94,85.62,-0.25,-1.81,-1.06,6,3
1772046843.410822,4181960,0.22,-0.03,0.16,-158.00,-69.50,79.87,-0.06,-0.56,0.13,-0.05,0.03,-0.01,9.00,61.94,85.62,-0.44,-0.31,-0.19,6,3
1772046843.601506,4182151,0.33,-0.08,0.10,-158.06,-69.44,79.87,-0.13,0.88,-0.50,-0.04,-0.01,0.01,9.00,61.94,85.62,-0.50,-0.94,-0.25,7,3
1772046843.791799,4182342,0.22,0.04,0.13,-158.00,-69.56,80.00,0.44,0.13,0.50,-0.01,0.11,0.02,9.00,62.00,85.75,-0.50,2.75,0.31,6,3
1772046843.982537,4182532,0.16,0.10,0.22,-158.31,-69.62,80.44,0.88,0.25,-2.87,-0.14,-0.05,0.06,9.06,61.88,85.50,0.94,1.25,0.50,6,3
1772046844.173099,4182723,0.37,0.07,0.16,-159.62,-69.19,81.50,6.37,1.37,3.62,-0.12,-0.03,0.09,9.13,61.63,85.56,0.00,1.94,0.62,6,3
1772046844.363239,4182913,0.32,-0.15,0.06,-160.56,-68.75,82.69,2.19,3.56,-1.12,-0.12,0.03,0.00,9.13,61.50,85.56,-0.31,-0.19,0.25,6,3
1772046844.553805,4183103,0.37,-0.17,0.00,-160.94,-68.50,82.50,-3.69,-1.44,0.62,-0.07,-0.03,0.12,9.13,61.50,85.56,-0.44,-0.37,-0.37,5,3
1772046844.745435,4183295,0.28,0.01,0.14,-159.94,-69.06,81.19,-5.69,-2.81,-1.19,-0.08,0.01,-0.04,9.19,61.75,85.56,-0.25,-1.31,-0.31,5,2
1772046844.936150,4183486,0.16,0.01,0.19,-158.69,-69.62,80.50,-0.75,-1.94,1.00,0.01,-0.03,0.11,9.13,61.75,85.62,-0.25,-0.75,-0.56,6,3
1772046845.126530,4183676,0.29,-0.08,0.13,-158.56,-69.62,80.50,0.75,0.44,0.37,-0.11,0.00,0.10,9.06,61.81,85.62,-0.37,0.88,0.00,6,3
1772046845.316541,4183867,0.24,0.14,0.13,-158.50,-69.37,80.62,5.31,1.56,1.94,-0.11,0.02,0.07,9.69,61.75,85.37,2.69,-4.25,3.81,6,3
1772046845.507258,4184057,0.37,-0.21,0.11,-161.56,-69.06,82.06,-0.19,2.06,-4.31,-0.04,0.03,-0.12,10.25,62.00,84.56,0.56,1.81,-0.19,5,2
1772046845.698243,4184248,0.07,-0.01,0.20,-161.12,-69.31,82.19,1.69,1.50,1.75,-0.07,0.02,0.15,9.94,61.56,84.62,0.00,3.31,0.19,5,2
1772046845.889657,4184439,0.54,0.00,-0.04,-161.12,-68.25,81.62,-2.06,4.31,0.75,-0.03,0.01,-0.03,10.13,61.38,84.62,-1.19,-1.00,0.88,5,2
1772046846.080304,4184630,0.20,-0.28,0.08,-161.00,-68.25,81.56,0.19,-3.12,-1.69,0.03,-0.01,-0.06,10.44,61.44,84.56,-0.44,1.44,1.00,5,2
1772046846.270833,4184820,0.17,0.01,0.23,-160.56,-69.50,80.69,-9.69,-5.69,-3.25,-0.02,-0.08,0.09,10.38,61.31,84.62,-0.25,-0.25,-1.69,5,2
1772046846.460614,4185010,0.23,-0.06,0.18,-159.87,-69.75,79.56,-6.50,3.25,-0.62,-0.03,0.02,0.01,9.69,61.50,84.81,1.37,0.62,0.19,5,3
1772046846.651969,4185202,0.29,-0.16,0.09,-159.31,-69.00,79.75,13.06,2.19,3.75,-0.07,0.04,0.03,9.56,61.38,84.87,-0.62,0.88,-0.19,5,3
1772046846.843115,4185393,0.31,-0.15,0.02,-160.87,-68.62,81.19,-0.06,0.44,-0.94,-0.03,-0.03,0.08,9.56,61.31,84.94,-0.69,-0.19,0.00,4,2
1772046847.033845,4185584,0.37,-0.32,0.08,-161.19,-68.69,81.37,-2.87,-3.00,1.56,-0.03,0.04,0.04,9.56,61.44,85.00,-1.00,0.62,0.62,5,3
1772046847.224054,4185774,0.27,-0.06,0.15,-159.00,-69.37,79.87,-10.38,-4.94,-2.75,-0.03,0.00,0.02,9.69,61.50,85.00,0.44,-0.19,-0.13,5,2
1772046847.413992,4185964,0.22,0.01,0.17,-158.25,-69.81,78.69,2.75,0.31,1.56,0.00,0.02,-0.07,9.69,61.56,85.06,-0.75,0.25,-0.88,6,3
1772046847.605659,4186155,0.27,0.02,0.13,-158.56,-69.75,79.00,-0.69,2.06,0.37,-0.12,0.06,-0.08,9.63,61.75,85.12,-1.44,-1.25,-1.50,5,3
1772046847.796321,4186346,0.27,-0.07,0.10,-158.56,-69.50,79.81,6.56,1.06,2.19,-0.02,-0.05,0.09,9.69,61.56,85.12,1.31,0.81,1.00,7,3
1772046847.987284,4186537,0.35,-0.19,0.07,-159.94,-69.00,81.19,5.75,1.87,-0.44,-0.10,0.02,-0.04,9.69,61.56,85.12,1.00,0.19,0.62,7,3
1772046848.177978,4186728,0.23,-0.05,0.11,-160.69,-69.00,81.94,1.19,-0.13,0.37,-0.05,0.00,0.08,9.69,61.44,85.06,0.50,1.50,0.06,8,3
1772046848.368302,4186918,0.33,-0.10,0.07,-160.94,-68.94,82.00,-1.37,-0.06,0.37,-0.12,0.02,-0.01,9.75,61.44,85.06,0.06,-0.62,-0.19,8,3
1772046848.559583,4187109,0.29,0.02,0.12,-160.75,-69.19,80.87,-10.19,-1.75,-4.62,-0.08,0.01,0.01,9.75,61.56,85.06,-0.19,-1.00,-0.37,7,3
1772046848.750431,4187300,0.26,-0.06,0.15,-160.31,-69.56,80.25,0.81,-0.88,0.75,-0.12,0.04,0.01,9.69,61.63,85.12,-0.50,-1.81,-1.25,7,4
1772046848.940999,4187491,0.28,-0.09,0.14,-160.25,-69.69,80.31,2.06,0.00,-0.06,-0.14,0.02,-0.01,9.50,61.81,85.25,0.00,-0.75,-1.75,7,4
1772046849.130724,4187681,0.29,0.07,0.09,-160.37,-69.37,80.44,2.25,3.06,1.94,-0.06,0.07,-0.14,9.38,61.75,85.37,1.12,-0.06,0.13,7,3
1772046849.321171,4187871,0.28,0.00,0.15,-160.69,-69.25,80.62,-2.00,-0.25,-0.13,-0.05,0.01,0.02,9.44,61.69,85.31,-0.50,0.19,0.31,6,3
1772046849.512486,4188063,0.35,-0.08,0.02,-160.50,-69.12,80.44,-0.06,1.00,0.00,-0.01,0.07,0.00,9.56,61.75,85.37,0.69,0.00,1.00,6,3
1772046849.703910,4188253,0.24,-0.03,0.11,-159.75,-69.37,79.87,-3.87,-2.56,-0.75,-0.13,-0.07,0.00,9.63,61.75,85.31,-0.25,-0.69,0.56,5,3
1772046849.894584,4188444,0.27,-0.12,0.13,-159.62,-69.62,79.81,0.75,-0.62,0.69,-0.01,0.03,0.00,9.69,61.81,85.37,-0.19,-0.13,-0.75,5,3
1772046850.084992,4188635,0.21,0.05,0.08,-159.31,-69.62,79.75,0.25,0.13,-0.44,-0.17,0.06,0.01,9.63,61.88,85.37,0.13,-1.00,0.19,4,3
1772046850.275214,4188825,0.28,0.11,0.08,-159.94,-69.56,80.44,7.44,1.44,0.31,-0.01,0.04,-0.08,9.94,62.00,85.25,-0.25,-0.62,0.06,5,3
1772046850.466835,4189016,0.15,-0.13,0.14,-160.37,-69.87,82.44,4.31,-1.62,-1.06,-0.16,0.03,-0.06,10.25,61.94,85.12,-0.69,-0.25,0.37,4,3
1772046850.657451,4189207,0.20,-0.16,0.04,-161.69,-70.06,83.44,2.37,2.62,-0.62,-0.10,0.01,0.04,10.31,61.75,85.12,-0.44,0.37,-0.62,4,3
1772046850.848392,4189398,0.26,-0.11,0.03,-162.06,-69.75,83.37,-4.44,-0.56,0.81,-0.10,0.02,-0.01,10.25,61.81,85.19,0.50,0.06,-0.19,4,2
1772046851.038228,4189588,0.28,0.06,0.12,-161.37,-69.87,81.87,-5.50,0.94,-1.75,-0.12,0.03,-0.03,10.19,61.88,85.19,-0.25,-1.56,-0.62,3,2
1772046851.228997,4189779,0.32,-0.02,0.10,-161.06,-69.75,81.50,-0.19,-0.50,-0.62,-0.11,-0.01,0.00,10.19,61.94,85.19,-0.44,-0.94,-0.25,5,3
1772046851.419958,4189970,0.25,-0.04,0.07,-160.94,-69.75,81.44,-1.00,0.62,0.69,0.02,-0.02,0.13,10.06,61.94,85.25,0.69,1.81,0.31,4,2
1772046851.611245,4190161,0.30,-0.07,0.12,-160.44,-69.81,81.19,-0.44,-1.37,1.94,-0.06,0.06,-0.01,9.88,62.00,85.31,-0.75,0.06,-0.50,5,3
1772046851.801642,4190352,0.29,-0.05,0.12,-159.44,-69.94,80.69,0.06,0.13,-0.37,-0.03,0.00,0.01,9.81,62.00,85.31,0.19,0.00,0.19,5,2
1772046851.991639,4190541,0.21,-0.06,0.17,-159.56,-69.94,80.75,0.69,-1.37,-0.44,-0.13,-0.04,0.09,9.88,62.00,85.31,-0.69,0.88,0.00,6,3
1772046852.181625,4190731,0.28,-0.14,0.10,-160.19,-69.62,81.62,5.44,2.62,1.12,-0.06,0.00,-0.02,9.81,62.00,85.31,-0.56,0.75,0.31,5,2
1772046852.373277,4190923,0.27,-0.12,0.06,-161.06,-69.25,82.06,1.56,2.50,-0.31,-0.11,0.00,0.03,9.88,61.94,85.37,-0.62,-1.31,-1.12,6,2
1772046852.564286,4191114,0.31,-0.05,0.09,-161.56,-68.94,82.19,-0.31,0.13,-0.25,-0.08,0.01,0.00,9.81,61.94,85.37,0.06,-0.37,-0.06,7,2
1772046852.755205,4191305,0.31,-0.10,0.08,-161.44,-68.94,82.00,-2.00,0.19,0.37,-0.03,-0.02,0.06,9.81,61.94,85.31,0.69,-0.31,-0.19,7,2
1772046852.944914,4191495,0.27,-0.04,0.13,-160.87,-69.12,81.62,-1.00,-1.69,0.88,-0.08,-0.01,0.06,9.75,61.88,85.31,0.50,0.56,0.81,6,2
1772046853.135604,4191686,0.30,-0.04,0.09,-160.62,-69.19,81.50,0.69,0.31,0.25,-0.04,-0.01,0.01,9.75,61.88,85.25,0.00,0.25,0.25,5,2
1772046853.326920,4191877,0.32,-0.09,0.09,-160.75,-69.19,81.56,0.06,0.56,0.19,-0.03,-0.07,0.09,9.69,61.88,85.31,0.62,1.31,0.37,6,2
1772046853.518126,4192068,0.37,-0.14,0.07,-160.81,-69.12,81.56,0.69,-0.13,-0.44,-0.16,0.04,0.02,9.63,62.00,85.31,-0.56,-0.50,-0.50,5,2
1772046853.708882,4192259,0.28,-0.02,0.09,-160.69,-69.19,81.50,0.37,0.31,-0.13,-0.04,0.02,0.01,9.63,62.00,85.31,-0.37,-0.44,-0.13,5,2
1772046853.899605,4192449,0.28,-0.10,0.10,-160.62,-69.25,81.56,-0.50,-0.88,0.06,-0.03,-0.04,0.08,9.69,62.00,85.31,0.06,-0.06,-0.06,5,2
1772046854.089462,4192639,0.35,-0.05,0.11,-160.19,-69.37,81.06,-4.37,-0.37,-1.25,-0.11,0.00,0.04,9.69,62.06,85.31,0.25,-2.00,-0.56,5,2
1772046854.280768,4192830,0.26,-0.06,0.10,-159.50,-69.56,80.56,-2.19,-0.44,0.06,-0.10,-0.01,0.06,9.69,62.06,85.31,0.00,-0.88,0.19,5,2
1772046854.471959,4193021,0.29,-0.02,0.08,-159.19,-69.62,80.12,-1.44,-1.12,-0.37,-0.09,0.05,-0.01,9.75,62.19,85.19,-0.69,-4.75,-0.62,5,2
1772046854.662560,4193212,0.27,-0.11,0.07,-159.19,-69.81,80.12,-0.37,-1.75,-1.75,-0.11,0.03,-0.06,10.06,62.44,84.94,0.37,-3.00,-0.44,4,2
1772046854.852269,4193402,0.26,-0.01,0.25,-158.44,-70.31,79.87,-2.87,-3.69,0.62,-0.10,-0.03,0.03,10.06,62.56,84.94,0.44,0.13,-0.25,5,3
1772046855.042765,4193593,0.34,-0.02,0.12,-158.06,-70.50,79.62,-0.75,1.12,0.25,-0.07,0.06,0.00,10.06,62.63,84.94,0.88,0.25,0.44,5,3
1772046855.233780,4193784,0.08,0.04,0.21,-158.06,-70.62,79.62,0.44,0.19,0.19,-0.13,0.00,0.15,10.19,62.56,84.81,0.06,-0.25,0.06,4,3
1772046855.425248,4193975,0.27,-0.01,0.06,-158.50,-70.44,79.69,-2.81,-0.37,-2.44,-0.11,-0.04,0.00,10.31,62.63,84.44,3.50,0.25,2.37,5,3
1772046855.615998,4194166,0.19,-0.19,0.15,-159.00,-70.69,79.56,-1.25,0.75,1.19,-0.06,0.03,0.02,10.19,62.56,84.12,-0.56,-0.06,-1.75,4,3
1772046855.806234,4194356,0.17,0.08,0.18,-157.37,-70.50,78.69,-0.37,-1.19,0.37,-0.06,0.02,0.04,9.94,62.50,84.25,0.00,0.62,0.56,5,3
1772046855.996482,4194546,0.26,-0.12,0.15,-157.75,-70.50,78.94,0.25,1.19,-2.19,-0.11,-0.06,0.00,10.13,62.56,84.19,-0.75,-2.56,0.19,4,3
1772046856.187550,4194738,0.24,-0.05,0.20,-158.81,-70.25,80.50,20.19,3.50,7.44,-0.04,0.02,-0.06,10.13,62.63,84.31,0.13,0.06,0.13,5,3
1772046856.378705,4194929,0.29,-0.10,0.07,-160.62,-69.69,82.37,0.25,2.94,0.31,-0.08,0.01,0.07,10.19,62.44,84.31,-0.50,-0.44,-0.69,5,3
1772046856.569661,4195119,0.29,-0.05,0.09,-160.56,-69.37,82.19,0.50,-1.69,-0.19,-0.15,0.04,0.01,10.31,62.50,84.31,-0.44,-1.44,-0.19,5,3
1772046856.760010,4195310,0.27,-0.13,0.15,-160.56,-69.62,82.37,-0.69,-0.06,1.12,-0.05,0.00,0.07,10.31,62.50,84.31,0.06,0.25,-0.06,5,3
1772046856.949789,4195500,0.27,-0.27,0.11,-160.44,-69.56,82.06,-2.62,2.12,-1.06,-0.02,0.00,0.13,10.00,62.44,84.12,1.81,-0.13,0.25,6,2
1772046857.140987,4195691,0.35,0.23,0.13,-159.06,-69.19,81.12,6.19,-3.12,2.87,-0.08,0.10,0.25,10.13,62.19,84.62,-0.62,2.50,1.12,6,2
1772046857.331853,4195882,0.34,0.00,0.03,-160.12,-69.12,82.06,1.62,3.00,-3.56,-0.09,-0.01,0.09,10.69,61.88,84.31,1.62,1.31,2.12,5,2
1772046857.522984,4196073,0.17,-0.15,0.10,-161.75,-69.19,82.81,-2.06,-1.44,0.88,-0.07,0.01,0.05,10.69,61.81,84.19,0.56,-0.44,-0.31,6,2
1772046857.713312,4196264,0.23,0.05,0.17,-160.50,-69.31,82.00,-0.13,-0.81,0.06,-0.03,0.05,0.04,10.69,61.88,84.19,0.88,0.56,0.31,7,2
1772046857.904458,4196454,0.27,0.05,0.19,-160.25,-69.37,81.87,-0.25,-0.69,0.44,-0.02,0.00,0.08,10.63,61.88,84.25,-0.75,-0.31,-0.94,7,2
1772046858.095611,4196645,0.28,-0.13,0.11,-160.06,-69.56,81.69,-2.75,-0.13,0.31,-0.08,0.00,-0.02,10.50,61.88,84.31,-0.44,-1.12,-0.56,7,1
1772046858.286010,4196836,0.34,-0.19,0.12,-159.37,-69.69,80.87,-1.44,-1.44,1.31,-0.02,0.05,-0.01,10.38,61.94,84.37,-0.13,-0.56,-0.62,6,1
1772046858.476456,4197026,0.23,0.10,0.17,-158.19,-70.19,79.25,-8.38,-1.62,-1.56,-0.06,0.03,0.08,10.31,61.94,84.37,0.25,-0.13,-0.31,6,2
1772046858.666995,4197217,0.25,-0.15,0.18,-157.12,-70.44,78.44,0.75,-0.25,-0.50,-0.07,0.08,0.01,10.25,62.00,84.44,0.00,0.56,0.00,6,2
1772046858.856619,4197407,0.33,0.15,0.13,-157.06,-70.31,78.31,1.44,2.62,-0.25,-0.15,0.12,0.03,10.31,61.94,84.44,-0.31,-2.00,-0.06,6,2
1772046859.048301,4197598,0.32,-0.08,0.16,-158.87,-69.87,79.37,5.75,3.12,-1.75,0.00,0.05,-0.04,10.56,62.06,84.19,-1.31,-0.69,-0.62,5,2
1772046859.239553,4197789,0.27,-0.12,0.19,-159.75,-69.87,80.25,1.44,-0.81,0.94,-0.03,-0.01,0.09,10.50,62.06,84.19,-2.19,-0.06,-0.25,6,2
1772046859.429896,4197980,0.37,-0.32,0.07,-159.12,-69.87,79.75,-11.75,-1.06,-1.81,-0.05,0.00,0.16,10.56,62.06,84.12,1.69,1.50,1.75,6,2
1772046859.619763,4198170,0.29,0.07,0.16,-158.06,-70.00,78.06,3.19,0.13,-0.75,-0.04,0.10,-0.06,10.69,62.06,83.94,0.88,-1.00,0.06,5,2
1772046859.809139,4198359,0.22,0.00,0.23,-158.94,-70.12,79.62,12.88,-1.12,3.94,-0.05,-0.09,0.07,10.69,61.94,83.87,2.87,2.75,1.12,4,2
1772046860.001302,4198551,0.33,-0.20,0.02,-161.06,-69.56,81.44,-1.37,6.12,0.50,-0.07,0.04,-0.01,10.44,61.69,83.69,-0.69,1.50,-0.88,5,2
1772046860.192031,4198742,0.31,0.24,0.06,-159.50,-68.56,80.00,-0.31,3.44,3.25,0.00,0.00,0.00,10.38,61.50,83.81,-1.50,0.56,-0.25,5,2
1772046860.383077,4198933,0.57,0.13,0.11,-160.25,-68.00,80.87,6.75,-0.19,-1.50,0.00,-0.10,0.00,10.88,61.50,84.00,-1.19,2.62,1.31,5,2
1772046860.573464,4199123,0.27,-0.41,0.07,-162.87,-68.56,85.00,15.19,0.37,-0.50,-0.21,-0.04,0.01,10.88,61.44,84.50,-2.37,-1.00,-2.31,5,2
1772046860.762879,4199313,0.23,-0.28,0.09,-165.87,-68.87,87.62,0.19,-0.94,0.81,-0.17,-0.06,0.16,10.69,61.31,84.75,0.00,1.56,-0.19,4,2
1772046860.955143,4199505,0.44,-0.06,0.04,-165.19,-68.62,87.25,-1.12,0.37,2.31,-0.06,0.06,-0.02,10.38,61.25,84.87,0.62,-0.37,-0.62,4,2
1772046861.145935,4199696,0.23,0.00,0.13,-164.25,-68.69,86.69,-0.50,-0.62,1.12,-0.08,0.12,0.01,10.25,61.19,84.87,-0.75,-0.37,-0.69,4,2
1772046861.336891,4199887,0.28,0.05,0.10,-164.19,-68.62,86.62,0.62,-0.44,-1.87,-0.10,0.10,-0.05,10.31,61.25,84.81,-0.56,-0.88,-0.75,4,2
1772046861.527315,4200078,0.15,0.03,0.14,-164.62,-68.62,86.94,0.13,1.62,-0.56,-0.06,-0.02,0.05,10.31,61.13,84.87,0.56,0.88,0.19,3,2
1772046861.718160,4200268,0.36,-0.07,0.08,-165.00,-68.25,87.00,1.00,1.06,-0.31,-0.13,0.03,0.03,10.31,61.06,84.87,0.44,0.88,0.13,4,2
1772046861.908972,4200459,0.24,-0.11,0.11,-165.19,-68.00,87.31,2.06,1.50,1.00,-0.08,0.04,0.01,9.94,60.88,85.00,0.88,1.44,-0.94,3,2
1772046862.099562,4200650,0.40,-0.13,0.03,-165.37,-67.56,87.31,-1.69,2.06,0.88,-0.03,0.00,0.10,9.75,60.75,84.94,0.00,0.25,0.31,4,2
1772046862.290286,4200841,0.30,-0.11,0.07,-165.25,-67.44,87.00,0.75,0.19,0.44,-0.11,0.03,0.00,9.75,60.69,84.94,-0.37,-1.12,0.06,3,2
1772046862.480544,4201031,0.29,-0.05,0.11,-165.50,-67.69,87.19,0.94,-1.87,-0.19,-0.04,0.05,0.00,9.81,60.75,84.94,-0.19,0.13,-0.06,3,2
1772046862.671712,4201222,0.26,0.02,0.11,-165.25,-67.94,87.19,-0.81,-0.13,-0.25,-0.03,0.03,-0.03,9.88,60.88,84.94,0.06,-0.25,-0.06,3,2
1772046862.862987,4201413,0.27,-0.05,0.15,-165.06,-68.00,87.19,-1.06,0.19,0.44,-0.08,-0.02,0.06,9.88,60.88,84.94,-0.37,-0.44,0.00,3,2
1772046863.053158,4201603,0.31,-0.09,0.06,-165.12,-67.87,87.06,-0.13,0.13,-0.31,-0.02,0.00,0.02,9.81,60.88,84.94,0.06,0.56,0.31,3,2
1772046863.244115,4201794,0.26,-0.06,0.13,-165.06,-67.87,87.00,-0.88,0.06,0.44,-0.11,0.10,-0.03,9.88,60.94,84.94,-0.44,-1.12,-0.50,3,2
1772046863.434634,4201985,0.28,-0.09,0.15,-165.00,-67.94,86.94,-0.56,-1.00,0.81,-0.05,0.00,0.02,9.88,61.00,84.94,-0.13,0.50,0.31,3,2
1772046863.624876,4202175,0.27,-0.06,0.11,-164.94,-67.87,86.87,0.37,1.19,-0.31,-0.08,0.05,-0.04,9.88,60.94,84.94,-0.69,-0.81,-0.37,3,2
1772046863.815894,4202366,0.30,-0.10,0.08,-165.12,-67.75,86.94,1.19,0.00,0.00,-0.05,0.04,0.06,9.81,60.94,85.00,-0.06,0.44,-0.37,3,2
1772046864.007179,4202557,0.35,-0.02,0.07,-164.81,-67.69,86.50,-2.75,1.06,-0.19,-0.04,0.04,-0.06,9.88,61.06,84.94,-0.19,-0.62,-0.19,3,2
1772046864.197631,4202748,0.21,-0.10,0.15,-164.56,-67.81,86.37,-0.25,-0.56,-0.81,0.00,0.02,0.05,9.88,61.00,84.94,0.00,0.19,-0.13,3,2
1772046864.388316,4202938,0.36,-0.02,0.09,-164.81,-67.69,86.37,0.81,0.06,-0.88,-0.06,0.08,-0.02,9.88,61.00,84.87,-0.37,0.31,-0.31,3,2
1772046864.578919,4203129,0.25,-0.07,0.11,-164.69,-67.87,86.44,-0.25,0.31,-0.37,-0.07,0.03,0.00,9.88,60.94,84.87,0.06,0.25,0.31,3,2
1772046864.769768,4203320,0.25,-0.15,0.11,-164.62,-67.81,86.44,0.25,-1.56,1.37,-0.07,-0.03,0.10,9.81,60.94,84.94,0.50,1.25,0.62,4,2
1772046864.960183,4203511,0.31,-0.19,0.05,-164.50,-67.69,86.37,1.62,1.87,0.31,-0.07,0.02,0.00,9.81,60.94,84.94,0.19,-0.75,0.00,3,2
1772046865.151035,4203701,0.31,-0.07,0.09,-164.69,-67.56,86.37,1.00,-0.62,0.69,-0.12,0.05,0.03,9.81,60.94,84.87,-0.25,-0.94,-0.56,4,2
1772046865.341788,4203892,0.33,-0.07,0.11,-164.75,-67.44,86.37,-0.50,1.00,0.44,-0.03,0.00,-0.02,9.81,60.94,84.94,0.37,0.13,0.37,3,2
1772046865.531669,4204082,0.26,-0.08,0.12,-165.19,-67.12,86.56,0.94,2.87,0.37,-0.02,0.05,0.05,9.81,60.94,84.94,-0.44,0.31,0.19,3,2
1772046865.723288,4204273,0.35,-0.08,0.10,-165.62,-66.50,86.62,1.12,2.75,-1.25,-0.09,0.04,0.02,9.88,60.88,84.87,-0.19,-0.44,-0.31,3,2
1772046865.913903,4204464,0.30,-0.04,0.08,-165.69,-66.25,86.56,-1.81,0.00,0.00,-0.06,0.00,0.08,9.88,60.88,84.87,0.75,0.62,0.19,4,2
1772046866.104846,4204655,0.34,-0.20,0.08,-165.56,-66.19,86.25,-1.50,-0.19,-0.31,-0.07,0.03,-0.05,9.88,60.94,84.87,0.13,-0.25,0.50,3,2
1772046866.294826,4204845,0.22,0.00,0.15,-164.62,-66.25,85.06,-7.81,0.88,-2.25,-0.07,0.04,-0.02,9.88,60.88,84.87,0.50,-0.62,-0.25,4,2
1772046866.485531,4205036,0.27,-0.05,0.12,-164.44,-66.12,84.31,-0.31,-0.37,-0.25,-0.09,0.00,0.11,9.88,60.88,84.87,0.50,0.62,0.37,5,2
1772046866.676677,4205227,0.35,-0.06,0.09,-164.56,-65.87,84.31,-0.31,1.19,-0.06,-0.04,0.00,0.12,9.88,60.88,84.87,0.25,0.56,0.19,5,2
1772046866.867866,4205418,0.30,-0.09,0.14,-164.75,-65.75,84.44,-0.56,0.00,-0.13,-0.10,0.04,0.01,9.88,61.00,84.87,-0.44,-0.75,-0.19,5,2
1772046867.058345,4205608,0.33,-0.12,0.10,-164.75,-65.81,84.44,-0.81,-1.25,-0.37,-0.05,0.01,0.03,9.94,61.00,84.87,-0.19,0.00,0.37,5,2
1772046867.248278,4205799,0.26,-0.15,0.13,-164.50,-66.06,84.37,-0.81,-1.81,0.56,-0.05,0.02,0.03,9.94,61.00,84.87,0.06,0.00,-0.37,6,2
1772046867.439209,4205989,0.41,-0.09,0.11,-163.62,-66.37,83.75,-3.50,-3.19,0.06,-0.07,0.00,0.06,9.88,61.06,84.87,-0.06,-0.81,-0.25,5,2
1772046867.630512,4206181,0.17,0.06,0.16,-163.00,-66.75,83.25,-1.44,-0.69,0.13,-0.04,0.02,0.05,9.88,61.06,84.87,-0.19,-0.25,-0.19,6,2
1772046867.821263,4206372,0.32,-0.08,0.12,-163.06,-66.75,83.31,0.75,-0.25,-0.62,-0.08,0.01,0.04,9.94,61.06,84.87,0.06,0.06,0.25,5,2
1772046868.011650,4206562,0.28,-0.09,0.13,-163.31,-66.81,83.56,0.44,-0.13,0.19,-0.06,0.00,0.04,9.94,61.00,84.87,0.25,0.31,-0.13,5,2
1772046868.202733,4206753,0.29,-0.05,0.09,-163.31,-66.75,83.56,-0.19,-0.19,-0.13,-0.05,0.07,-0.01,9.88,61.06,84.87,0.62,0.56,0.00,5,2
1772046868.393320,4206943,0.22,-0.05,0.17,-163.25,-66.94,83.62,-0.50,-0.69,0.13,-0.13,0.00,0.07,9.88,61.00,84.87,-0.06,-0.50,-0.13,4,2
1772046868.584221,4207134,0.27,-0.10,0.15,-163.31,-66.94,83.69,0.00,-0.56,-0.25,-0.08,0.04,0.03,9.88,61.00,84.87,-0.19,-0.31,-0.25,4,2
1772046868.774913,4207325,0.28,-0.07,0.12,-163.25,-66.94,83.62,-0.69,0.94,0.25,-0.05,0.04,0.03,9.88,61.00,84.87,0.25,-0.13,-0.06,4,2
1772046868.965621,4207516,0.30,-0.78,0.08,-162.69,-66.87,82.62,-18.37,-0.31,-2.62,-0.23,0.08,0.21,9.94,61.00,84.81,1.75,-1.37,2.19,4,2
1772046869.155811,4207706,0.40,0.52,0.16,-159.94,-67.44,75.37,-25.56,-4.31,-4.56,-0.03,-0.07,0.03,10.50,61.19,84.37,1.81,-1.19,1.19,4,2
1772046869.345966,4207896,0.42,-0.03,0.23,-156.94,-68.25,73.87,9.75,-7.06,4.69,-0.16,0.13,-0.07,10.25,61.63,84.25,1.06,0.44,0.81,4,2
1772046869.537431,4208088,0.21,-0.14,0.25,-154.94,-69.00,75.31,0.44,-1.94,1.81,-0.09,0.09,0.11,10.13,61.50,84.37,-0.75,1.94,-1.25,4,1
1772046869.728466,4208279,0.38,-0.87,0.13,-154.00,-68.87,73.69,-40.75,6.75,-15.13,-0.12,0.10,0.10,9.88,61.50,84.50,-0.19,-0.25,1.50,4,2
1772046869.918820,4208469,0.29,0.89,0.24,-152.87,-69.19,68.69,31.00,-1.12,18.75,-0.04,0.00,-0.10,10.13,61.44,84.44,0.19,0.25,-1.44,4,2
1772046870.109048,4208660,0.29,-0.85,0.15,-152.81,-67.31,77.00,32.00,2.12,3.44,-0.08,0.10,0.04,9.69,61.44,84.62,-0.69,0.69,0.31,4,2
1772046870.300002,4208850,0.34,-0.21,0.01,-157.94,-67.06,80.69,-5.06,3.62,-5.19,-0.05,-0.01,-0.04,10.06,61.38,84.50,-0.31,-0.13,0.13,4,2
1772046870.490828,4209041,0.27,-0.31,0.10,-159.06,-67.37,80.62,-1.87,-2.81,-2.50,-0.06,0.00,0.00,9.94,61.44,84.50,0.19,0.75,0.37,4,2
1772046870.681791,4209232,0.30,-0.14,0.15,-158.75,-67.94,80.12,-5.69,-0.19,-2.56,-0.01,0.03,0.04,9.88,61.44,84.56,-0.13,0.94,0.00,3,2
1772046870.872527,4209423,0.33,-0.02,0.12,-158.37,-68.00,79.31,-1.56,-0.19,-1.19,-0.14,0.02,0.01,9.81,61.50,84.56,-0.37,-0.25,-0.13,3,3
1772046871.062946,4209613,0.27,-0.11,0.12,-158.62,-68.12,79.06,-5.56,-0.06,-1.81,-0.14,0.01,-0.09,9.81,61.44,84.56,-0.88,-1.25,-0.62,3,3
1772046871.252958,4209803,0.26,-0.07,0.14,-158.44,-68.19,78.31,-2.69,-0.62,-0.81,0.00,-0.01,0.07,9.75,61.50,84.62,0.13,1.00,0.25,3,3
1772046871.444796,4209995,0.26,-0.03,0.12,-158.06,-68.25,77.75,-1.62,-0.69,-0.13,-0.11,0.04,-0.01,9.69,61.50,84.69,-0.19,-1.00,-0.37,4,3
1772046871.635239,4210186,0.25,-0.02,0.21,-157.94,-68.37,77.81,3.62,-0.81,0.25,-0.07,0.02,0.12,9.75,61.50,84.69,-0.56,0.69,0.13,5,2
1772046871.826008,4210376,0.24,-0.08,0.16,-158.50,-68.37,78.50,-1.19,-0.25,-1.25,-0.05,0.00,0.07,9.88,61.44,84.62,-0.50,0.81,0.37,5,2
1772046872.016445,4210567,0.27,-0.13,0.20,-159.19,-68.25,78.81,-0.31,0.31,-0.44,-0.09,0.01,0.00,9.88,61.44,84.69,-0.31,0.13,-0.19,5,2
1772046872.206354,4210757,0.27,-0.15,0.14,-159.31,-68.00,78.75,0.31,1.31,0.00,-0.07,0.01,0.02,9.88,61.44,84.69,0.31,0.25,0.13,5,2
1772046872.397810,4210948,0.25,-0.15,0.11,-159.31,-68.00,78.75,-0.44,-0.88,0.50,-0.03,0.00,0.06,9.88,61.44,84.62,0.69,0.50,0.31,6,2
1772046872.589138,4211139,0.29,0.00,0.17,-158.69,-68.25,78.00,-4.25,-1.06,-2.12,-0.02,0.02,0.06,9.81,61.50,84.62,-0.37,-1.37,-0.69,6,2
1772046872.779387,4211330,0.18,-0.06,0.19,-158.50,-68.56,78.00,-0.56,-0.37,-0.25,-0.06,0.03,0.03,9.81,61.50,84.62,-0.19,0.25,0.31,7,1
1772046872.969407,4211520,0.28,-0.05,0.15,-158.81,-68.37,78.12,2.25,2.44,-0.56,-0.05,0.00,0.02,9.81,61.50,84.69,-0.37,-0.06,-0.13,6,2
1772046873.160637,4211711,0.23,-0.11,0.18,-159.50,-68.19,78.69,-0.75,-1.06,-0.19,-0.11,0.00,0.09,9.88,61.44,84.62,-0.44,0.19,-0.31,6,2
1772046873.351619,4211902,0.34,-0.02,0.11,-159.56,-68.12,78.69,-0.88,0.44,-0.56,-0.04,0.05,-0.01,9.88,61.56,84.62,0.62,0.44,-0.25,6,2
1772046873.542216,4212093,0.17,-0.04,0.18,-159.19,-68.31,78.56,-1.19,-0.31,0.19,-0.07,-0.01,0.01,9.81,61.50,84.62,-0.13,0.19,0.19,5,2
1772046873.732746,4212283,0.29,-0.12,0.14,-159.31,-68.19,78.56,-0.44,-0.37,0.06,-0.08,0.01,0.05,9.81,61.50,84.62,-0.19,0.13,0.06,5,2
1772046873.923376,4212474,0.28,-0.06,0.12,-159.12,-68.31,78.44,-0.19,-0.62,0.19,-0.03,0.03,0.03,9.81,61.50,84.62,0.13,-0.13,0.00,5,2
1772046874.113764,4212664,0.21,-0.13,0.21,-159.00,-68.44,78.44,1.44,-0.50,0.06,-0.08,0.05,0.05,9.88,61.56,84.62,-0.56,-0.37,-0.13,5,2
1772046874.304701,4212855,0.31,-0.01,0.13,-159.19,-68.31,78.37,0.37,1.69,0.25,-0.07,0.00,0.03,9.88,61.50,84.62,-0.31,-0.13,-0.50,4,2
1772046874.495574,4213046,0.34,-0.18,0.12,-159.81,-68.00,78.81,1.31,2.31,-1.00,0.00,-0.03,-0.01,9.94,61.50,84.62,0.19,0.44,1.00,5,2
1772046874.686080,4213237,0.16,-0.10,0.17,-160.12,-68.06,79.25,2.94,-0.19,1.62,0.01,-0.05,0.11,10.00,61.44,84.56,0.44,0.50,0.31,5,2
1772046874.876755,4213427,0.28,-0.16,0.16,-160.31,-68.00,79.50,1.06,-0.94,0.00,-0.08,0.04,0.02,9.94,61.50,84.56,0.25,0.13,-0.06,5,2
1772046875.067991,4213618,0.27,-0.05,0.12,-160.25,-68.06,79.50,-0.37,-0.31,0.37,-0.06,0.01,0.08,9.94,61.44,84.56,-0.06,-0.44,-0.25,5,1
1772046875.258618,4213809,0.22,-0.08,0.20,-160.25,-68.19,79.62,-0.06,-0.69,-0.06,-0.01,0.02,0.08,9.94,61.44,84.56,0.00,-0.06,0.00,5,1
1772046875.449215,4214000,0.26,-0.14,0.10,-160.19,-68.19,79.56,-1.25,0.13,0.13,-0.19,0.10,-0.05,9.94,61.50,84.62,-0.13,0.13,0.06,5,1
1772046875.639706,4214190,0.16,0.07,0.15,-159.81,-68.31,78.75,-2.69,-0.88,-0.69,-0.07,0.01,0.05,9.94,61.50,84.56,0.31,0.37,0.44,5,1
1772046875.830016,4214380,0.28,-0.08,0.17,-159.87,-68.31,78.81,1.31,0.31,-0.19,-0.10,0.04,0.04,9.94,61.50,84.62,-0.56,0.13,-0.19,5,2
1772046876.020099,4214571,0.25,-0.21,0.11,-160.31,-68.12,79.44,1.19,0.81,1.06,-0.08,0.00,0.06,9.94,61.50,84.62,0.13,0.94,0.62,5,2
1772046876.211996,4214762,0.33,-0.17,0.15,-160.56,-68.06,79.50,-0.50,-1.37,0.06,-0.10,0.04,0.11,9.94,61.50,84.62,0.06,-0.37,-0.25,6,2
1772046876.402593,4214953,0.29,-0.07,0.17,-160.25,-68.06,79.25,-0.94,-0.19,0.25,-0.12,0.04,0.01,9.94,61.50,84.62,0.00,-0.37,0.06,5,2
1772046876.592911,4215144,0.25,-0.10,0.19,-160.25,-68.06,79.25,0.31,-0.25,0.25,-0.08,0.03,0.05,9.94,61.50,84.62,0.00,0.31,0.06,5,2
1772046876.783357,4215334,0.32,0.02,0.13,-160.31,-68.00,79.19,0.62,0.25,0.19,-0.05,0.05,0.00,9.94,61.56,84.62,0.31,0.31,0.06,4,2
1772046876.973950,4215525,0.31,-0.01,0.16,-160.56,-67.94,79.56,1.62,1.44,-0.19,-0.10,0.06,0.00,9.94,61.56,84.62,0.25,-0.75,0.44,5,2
1772046877.165357,4215716,0.44,-0.01,0.09,-159.62,-68.50,75.69,-58.19,-12.19,-23.12,-0.08,-0.10,0.18,10.19,61.44,84.44,0.81,-3.87,-0.31,4,2
1772046877.356020,4215907,0.14,-0.04,0.38,-156.87,-70.56,72.06,11.75,-6.12,6.87,-0.02,0.13,-0.12,10.00,61.63,84.50,0.00,0.75,0.31,4,3
1772046877.546662,4216097,0.31,-0.01,0.24,-154.87,-69.56,76.75,77.87,16.44,39.06,-0.07,0.15,0.05,10.00,61.38,84.69,-2.50,0.06,-2.31,5,3
1772046877.736986,4216287,0.49,-0.54,0.09,-158.25,-66.31,86.44,14.56,-0.37,2.19,-0.06,0.01,-0.03,10.06,61.50,84.87,-1.12,-1.25,0.37,5,2
1772046877.927955,4216478,0.25,-0.22,0.24,-159.00,-67.25,87.81,-3.25,-2.87,-2.50,-0.04,-0.02,-0.08,10.38,61.63,84.87,-0.75,-1.06,-0.13,5,2
1772046878.118893,4216669,0.39,-0.34,0.10,-158.69,-67.81,87.00,-8.81,-2.12,0.13,-0.06,0.02,-0.03,10.31,61.63,84.87,0.62,-1.37,-0.88,5,2
1772046878.309750,4216860,0.27,-0.38,0.27,-154.19,-70.19,81.81,-59.06,-25.94,-13.25,-0.08,0.01,0.04,10.25,61.69,84.87,1.31,0.19,1.19,5,2
1772046878.500040,4217051,0.15,0.47,0.27,-147.56,-73.00,73.31,-14.38,0.62,-4.44,-0.03,0.03,0.00,10.06,61.75,84.87,0.25,0.50,-0.31,4,2
1772046878.690372,4217241,0.32,-0.07,0.12,-146.37,-72.50,72.31,2.56,2.31,2.06,-0.09,0.05,0.03,10.06,61.63,84.87,-0.06,-0.31,-0.44,4,2
1772046878.880367,4217431,0.26,0.00,0.11,-146.87,-72.06,72.37,1.50,1.81,0.31,0.00,0.00,0.00,10.06,61.69,84.87,0.44,0.00,0.25,3,2
1772046879.072131,4217623,0.21,-0.02,0.16,-147.44,-72.06,72.94,2.19,1.06,0.81,-0.04,-0.01,0.01,10.06,61.69,84.87,0.50,0.13,0.31,4,2
1772046879.262988,4217814,0.26,-0.07,0.10,-148.75,-71.62,73.69,5.37,2.75,1.12,-0.06,0.02,0.05,10.06,61.63,84.94,-0.44,0.44,0.19,3,2
1772046879.453768,4218004,0.25,-0.08,0.09,-149.62,-71.31,74.62,2.37,0.88,-0.75,-0.06,-0.03,-0.01,10.13,61.56,84.87,0.44,0.00,0.44,3,2
1772046879.644025,4218195,0.07,0.49,0.18,-150.62,-71.25,75.37,8.50,1.56,2.12,-0.01,-0.13,0.13,10.13,61.56,84.87,2.00,2.37,1.37,2,2
1772046879.833678,4218384,0.43,-0.73,0.04,-152.25,-70.12,79.69,13.75,0.00,5.12,-0.02,0.05,0.00,9.94,61.44,84.94,0.69,2.25,1.31,3,2
1772046880.025689,4218576,0.66,-0.49,0.11,-152.81,-71.19,77.69,-54.06,-11.69,-17.50,-0.01,-0.07,0.05,10.06,61.19,84.50,1.19,2.31,1.87,4,2
1772046880.216559,4218767,0.08,0.14,0.33,-146.50,-72.75,72.69,4.62,-2.44,6.81,-0.16,0.10,0.04,9.63,61.06,84.44,1.25,0.62,0.69,5,2
1772046880.406878,4218958,0.38,0.25,0.08,-145.37,-72.06,71.94,-0.25,6.37,0.75,0.00,0.08,0.10,9.69,61.06,84.25,-1.12,1.62,1.75,5,2
1772046880.597227,4219148,0.35,0.03,0.24,-148.19,-70.31,75.87,43.63,5.69,11.00,-0.01,-0.06,-0.07,9.88,61.13,84.00,1.12,-1.75,0.69,5,2
1772046880.786706,4219338,0.34,-0.32,0.10,-153.69,-69.75,82.56,10.44,0.13,-3.12,-0.12,0.00,0.14,10.00,61.13,84.00,0.19,1.69,0.94,6,2
1772046880.978999,4219530,0.48,-0.14,0.00,-156.75,-69.12,84.56,8.13,6.37,3.50,-0.10,0.03,0.07,10.06,61.06,84.06,-1.12,-0.81,0.00,7,2
1772046881.170170,4219721,0.28,0.03,0.07,-157.62,-68.69,85.06,0.56,-1.25,-1.62,-0.02,-0.03,0.02,10.19,61.06,84.06,0.00,-0.19,0.13,7,3
1772046881.360800,4219911,0.26,0.00,0.09,-157.56,-68.87,84.87,-5.37,-1.25,0.06,-0.11,0.02,-0.03,10.19,61.13,84.06,0.62,-0.19,-0.37,6,2
1772046881.550650,4220101,0.29,0.02,0.07,-156.75,-68.94,83.94,-1.81,0.44,0.13,-0.10,0.05,-0.04,10.13,61.06,84.12,0.06,-0.62,0.00,6,3
1772046881.741479,4220292,0.27,-0.01,0.11,-156.69,-69.06,83.56,-2.87,-0.44,-1.44,-0.09,0.01,0.03,10.13,61.06,84.12,-0.19,0.37,0.37,7,2
1772046881.932946,4220483,0.41,-0.91,-0.01,-155.81,-69.12,82.00,-25.37,-0.62,-3.12,-0.05,-0.03,0.14,10.13,61.06,84.06,0.13,-0.37,0.37,6,2
1772046882.123690,4220674,0.27,0.59,0.31,-153.56,-70.62,75.25,-14.81,-4.06,-4.50,-0.02,0.00,0.01,10.00,61.25,84.06,0.37,-0.13,-0.75,5,2
1772046882.313949,4220865,0.20,-0.21,0.18,-150.75,-70.94,74.31,-0.31,1.12,0.56,-0.08,0.00,0.11,9.88,61.25,84.06,0.31,0.62,0.62,5,1
1772046882.504323,4221055,0.22,-0.08,0.16,-151.06,-70.75,74.25,2.31,1.12,-0.94,-0.10,-0.02,0.16,10.06,61.19,84.00,-0.56,-0.88,1.19,5,2
1772046882.693955,4221245,0.33,-0.12,0.15,-153.44,-69.87,77.12,32.69,2.25,9.13,-0.02,-0.16,-0.10,10.25,61.31,83.75,2.87,-0.94,0.81,5,2
1772046882.885790,4221436,0.33,-0.21,0.12,-157.19,-69.75,81.19,-2.50,-2.00,0.44,-0.05,0.00,0.24,10.19,61.31,83.75,-0.69,1.56,-0.06,4,2
1772046883.076825,4221628,0.36,0.00,0.03,-156.37,-69.44,80.31,-3.12,2.50,0.44,-0.04,0.00,-0.01,10.25,61.25,83.69,0.13,-1.37,0.50,4,1
1772046883.267742,4221818,0.19,-0.18,0.13,-156.06,-69.56,80.00,-1.37,-3.12,-0.94,-0.09,0.00,0.06,10.31,61.31,83.69,0.19,-0.44,-0.19,5,2
1772046883.458188,4222009,0.26,-0.11,0.14,-155.75,-69.69,79.69,0.06,0.88,-0.44,-0.06,0.01,-0.03,10.25,61.44,83.69,0.56,0.62,0.31,5,1
1772046883.648828,4222200,0.32,-0.03,0.09,-155.87,-69.56,79.62,0.69,1.19,0.19,-0.04,0.00,0.00,10.25,61.38,83.69,0.31,-0.56,-0.25,4,2
1772046883.839857,4222390,0.28,-0.12,0.08,-156.12,-69.50,79.75,-0.56,-0.06,-0.06,-0.05,-0.01,0.01,10.25,61.38,83.69,0.06,-0.06,0.19,5,2
1772046884.030561,4222581,0.29,-0.12,0.12,-156.06,-69.50,79.69,-0.31,0.62,-0.50,0.00,-0.05,0.08,10.25,61.38,83.69,0.25,0.13,-0.06,5,2
1772046884.221141,4222772,0.28,-0.11,0.07,-155.87,-69.50,79.44,-1.87,0.25,0.69,-0.08,-0.01,0.03,10.19,61.44,83.69,0.00,0.13,0.13,5,2
1772046884.411404,4222962,0.36,-0.32,0.10,-155.50,-69.56,78.56,-11.50,-1.00,-3.06,-0.03,0.01,0.00,10.19,61.50,83.69,-0.06,0.06,0.75,5,2
1772046884.601950,4223153,0.20,0.11,0.16,-154.81,-70.12,76.37,-5.75,-1.62,-2.12,-0.06,0.00,0.03,10.25,61.50,83.69,-0.88,-0.25,-0.50,5,2
1772046884.793596,4223344,0.17,-0.19,0.14,-154.25,-70.19,76.00,-2.62,-1.31,-2.06,-0.13,-0.05,-0.02,10.13,61.63,83.62,1.12,-0.75,0.13,5,2
1772046884.984038,4223535,0.25,0.09,0.12,-154.00,-70.19,75.81,4.62,0.37,0.88,-0.05,0.00,0.09,10.06,61.63,83.69,-1.12,1.56,-0.62,5,2
1772046885.174679,4223725,0.28,0.09,0.15,-154.12,-69.81,77.06,8.63,1.56,1.87,-0.12,-0.08,0.00,10.19,61.63,83.81,-2.69,0.37,-0.88,4,2
1772046885.365382,4223916,0.19,-0.31,0.15,-156.00,-69.56,81.06,20.31,-1.81,1.50,-0.10,-0.13,-0.01,10.31,61.38,83.69,0.13,-3.56,-0.62,5,2
1772046885.556256,4224107,0.26,-0.27,0.08,-159.06,-69.44,83.81,0.69,1.00,0.25,-0.03,0.04,-0.03,10.19,61.38,83.75,0.19,-0.94,-1.12,4,2
1772046885.747078,4224298,0.32,-0.04,0.08,-158.37,-69.12,83.06,-2.87,-1.06,0.62,-0.07,-0.03,0.07,10.31,61.31,83.69,0.06,-0.13,1.25,4,2
1772046885.938145,4224489,0.25,-0.25,0.13,-157.62,-69.62,81.06,-23.87,-2.44,-8.06,-0.10,-0.01,0.03,10.38,61.38,83.62,0.69,-0.44,0.00,4,2
1772046886.128691,4224679,0.29,0.15,0.14,-156.19,-70.37,77.44,-5.44,-1.56,-0.75,-0.09,0.00,-0.01,10.19,61.50,83.62,1.25,0.13,-0.50,4,2
1772046886.318514,4224870,0.26,0.29,0.17,-154.94,-70.37,76.62,1.56,-0.44,1.12,0.03,-0.04,0.15,10.19,61.50,83.69,3.12,3.50,1.56,4,2
1772046886.509127,4225060,0.31,-0.33,0.01,-156.37,-69.94,78.81,13.44,4.94,2.75,-0.15,0.17,-0.20,10.06,61.56,83.50,-2.37,-2.00,-2.00,5,2
1772046886.700208,4225251,0.14,-0.64,0.01,-157.19,-69.56,79.69,-15.69,1.12,-1.56,-0.06,-0.05,0.41,10.00,61.56,83.62,-2.37,3.50,1.44,6,2
1772046886.891210,4225442,0.43,0.11,0.12,-156.94,-69.75,76.00,5.31,-1.00,4.19,0.02,0.01,-0.01,10.13,61.56,83.69,0.06,0.88,0.56,5,2
1772046887.082080,4225633,0.12,0.08,0.20,-156.25,-69.69,78.12,29.12,1.12,9.50,-0.05,0.10,-0.32,10.13,61.63,83.62,-3.37,-2.56,-1.25,6,3
1772046887.272627,4225823,0.24,-0.60,0.05,-157.50,-68.87,82.69,9.81,2.75,-1.56,-0.04,0.05,0.01,10.38,61.44,83.75,-0.50,0.94,-0.37,6,3
1772046887.463323,4226014,0.41,-0.07,0.02,-159.31,-68.44,83.50,-1.44,1.37,-1.44,-0.08,0.04,-0.09,10.56,61.31,83.75,-0.13,-0.75,0.19,6,3
1772046887.654630,4226205,0.33,-0.49,0.05,-159.37,-68.75,83.56,-3.81,-2.06,0.75,-0.06,-0.01,0.04,10.56,61.25,83.69,-0.44,-0.81,-0.31,6,3
1772046887.845508,4226396,0.30,0.36,0.19,-158.44,-69.50,79.44,-26.94,-2.56,-8.56,-0.05,-0.04,0.05,10.63,61.38,83.56,0.44,-0.69,-0.19,5,3
1772046888.035974,4226587,0.26,-0.02,0.18,-156.50,-70.12,76.87,-1.25,-2.19,0.75,-0.09,0.02,0.04,10.56,61.50,83.56,0.44,-0.62,0.19,5,3
1772046888.226821,4226777,0.28,-0.07,0.16,-156.06,-70.25,76.69,-0.37,-0.13,0.31,-0.03,0.03,0.02,10.56,61.56,83.56,-0.13,-0.13,-0.25,5,3
1772046888.416882,4226968,0.26,0.05,0.13,-155.81,-70.25,76.56,2.00,0.31,-0.56,-0.05,0.02,-0.02,10.56,61.56,83.56,-0.56,0.00,0.06,4,2
1772046888.607620,4227158,0.22,0.36,0.22,-156.62,-70.19,77.62,13.19,1.50,3.00,-0.06,0.04,-0.03,10.63,61.50,83.69,-0.62,-0.31,-1.44,4,2
1772046888.798892,4227350,0.28,-0.33,0.06,-157.37,-69.44,81.25,11.56,2.56,2.75,-0.04,-0.04,0.00,10.56,61.44,83.75,-0.75,-0.75,0.06,5,2
1772046888.989266,4227540,0.28,-0.14,0.07,-158.81,-69.19,82.37,0.69,0.81,0.13,-0.03,-0.01,0.05,10.56,61.44,83.75,0.31,1.31,0.19,3,2
1772046889.180420,4227731,0.37,-0.11,0.09,-159.19,-68.94,82.50,0.37,1.06,-0.31,-0.12,0.02,-0.02,10.50,61.38,83.75,-0.19,-0.69,-0.31,4,2
1772046889.370931,4227922,0.31,-0.15,0.10,-159.31,-68.87,82.56,0.50,0.50,-0.62,-0.09,0.00,0.04,10.50,61.38,83.75,-0.13,0.37,-0.06,3,2
1772046889.561507,4228113,0.36,0.02,0.06,-159.56,-68.81,82.50,-0.19,0.06,0.06,-0.09,0.05,0.03,10.50,61.38,83.75,0.75,0.50,0.13,4,2
1772046889.752355,4228303,0.22,-0.06,0.07,-159.69,-68.87,82.50,-0.75,0.13,-0.19,-0.07,0.00,0.02,10.44,61.31,83.75,0.44,0.37,0.37,4,2
1772046889.943029,4228494,0.24,0.00,0.11,-160.00,-68.81,82.25,-0.44,0.37,-0.62,-0.07,0.03,-0.01,10.38,61.31,83.75,-0.31,0.13,-0.31,4,2
1772046890.133336,4228684,0.29,-0.07,0.04,-160.19,-68.81,82.44,1.37,-0.37,0.75,-0.08,0.08,0.05,10.38,61.31,83.81,-0.69,0.00,0.00,4,2
1772046890.324474,4228875,0.33,-0.19,0.08,-160.37,-68.75,83.06,-0.13,0.13,-0.44,0.00,-0.01,0.08,10.38,61.38,83.81,-0.31,0.25,0.25,4,2
1772046890.515253,4229066,0.33,-0.12,0.07,-160.31,-68.75,82.94,0.06,0.31,-0.06,-0.05,0.00,0.00,10.38,61.38,83.81,0.00,-0.31,-0.25,5,2
1772046890.705890,4229257,0.27,-0.10,0.08,-160.06,-68.81,82.69,-0.69,-1.50,0.75,0.01,0.00,0.08,10.38,61.38,83.87,0.31,1.25,0.19,5,2
1772046890.896713,4229447,0.34,-0.04,0.08,-159.44,-68.87,82.31,-1.62,0.50,0.31,-0.06,-0.03,0.01,10.31,61.44,83.87,-0.06,-0.56,-0.13,6,2
1772046891.087209,4229638,0.39,-0.56,0.03,-159.62,-69.00,81.87,-17.25,-0.19,-5.12,-0.13,0.05,0.06,10.31,61.50,83.87,0.50,-0.25,0.37,6,2
