host_time_s,t_ms,ax1,ay1,az1,roll1,pitch1,yaw1,gx1,gy1,gz1,ax2,ay2,az2,roll2,pitch2,yaw2,gx2,gy2,gz2,emg1,emg2
1772399723.789444,9480094,2.6,0.32,0.12,-166.44,-69.5,249.62,26.56,58.81,20.5,-0.04,0.16,-0.21,-0.5,-71.37,99.5,0.5,1.31,1.31,4,4
1772399723.789786,9480134,1.03,-0.04,0.19,-166.19,-68.06,250.37,33.44,17.5,22.44,-0.06,0.13,-0.2,-0.69,-71.44,99.5,0.56,1.31,-0.88,4,4
1772399723.790072,9480173,0.71,-0.5,0.12,-166.19,-67.75,251.56,25.25,3.81,7.37,-0.01,0.1,-0.2,-0.62,-71.5,99.62,0.19,0.31,-2.62,4,4
1772399723.790456,9480214,0.62,-0.64,0.03,-166.81,-67.94,252.5,8.56,-10.56,-5.37,0.0,-0.12,-0.18,-0.31,-71.5,99.69,-1.94,0.94,-3.06,4,5
1772399723.790791,9480254,-0.59,-0.39,0.03,-167.56,-68.56,253.06,-3.44,-14.44,-13.56,0.01,-0.15,-0.2,0.06,-71.56,99.75,-4.44,-0.31,-1.19,4,5
1772399723.791135,9480295,-0.32,-0.1,0.07,-168.5,-68.87,253.19,-7.75,-3.75,-12.56,-0.08,-0.04,0.1,0.37,-71.56,99.62,-3.75,-1.25,-0.56,4,5
1772399723.791438,9480335,0.02,-0.02,0.11,-169.19,-69.0,253.19,-5.31,0.44,-7.87,0.01,-0.05,0.01,0.44,-71.5,99.56,-1.81,-0.56,0.31,4,5
1772399723.791709,9480374,-0.05,-0.02,0.04,-169.5,-69.06,253.19,-2.56,0.56,-2.37,-0.01,0.07,-0.1,0.5,-71.5,99.56,-1.44,0.44,-1.25,5,5
1772399723.791973,9480415,0.09,0.05,0.01,-169.5,-68.94,253.06,-0.94,3.06,0.5,-0.09,-0.03,-0.05,0.62,-71.5,99.62,-1.94,2.0,-2.69,5,5
1772399723.792238,9480455,0.19,0.01,0.0,-169.37,-68.81,252.94,0.94,2.56,1.75,-0.11,-0.18,0.0,1.06,-71.5,99.69,4.44,-4.25,-2.06,5,5
1772399723.792494,9480495,0.19,-0.08,-0.05,-169.25,-68.75,252.94,1.06,0.81,2.94,-0.03,-0.19,-0.04,1.37,-71.5,99.81,-0.31,0.75,-2.37,4,5
1772399723.792798,9480534,0.29,-0.11,-0.08,-168.94,-68.69,252.75,-1.56,0.81,3.62,-0.01,-0.24,-0.07,1.75,-71.5,99.87,-1.06,1.69,-1.56,5,4
1772399723.793075,9480575,0.29,0.08,-0.08,-168.44,-68.69,252.37,-5.0,-3.5,3.25,-0.01,-0.2,-0.26,2.12,-71.56,99.94,0.06,0.56,-0.69,5,4
1772399723.793329,9480615,0.07,0.11,0.06,-167.75,-68.75,251.94,-6.19,0.62,5.12,0.0,-0.17,-0.09,2.25,-71.62,100.0,0.81,-0.44,-0.19,4,4
1772399723.793581,9480656,0.51,0.25,0.05,-167.0,-68.69,251.37,-5.12,-2.37,5.31,-0.03,-0.1,-0.05,2.31,-71.62,100.06,1.75,-0.44,-0.19,4,4
1772399723.793835,9480697,0.25,0.28,0.0,-166.25,-68.87,251.0,-3.69,-8.0,2.87,-0.02,-0.06,-0.09,2.25,-71.62,100.12,1.19,-0.31,-0.25,4,4
1772399723.794094,9480738,0.04,0.14,0.07,-165.87,-69.19,250.81,-1.56,-6.69,-0.13,-0.02,0.0,0.11,2.31,-71.62,100.12,-1.19,-0.69,0.25,4,4
1772399723.794331,9480777,0.0,0.07,0.07,-165.87,-69.44,250.94,-0.13,-6.12,-3.31,-0.01,0.03,0.13,2.31,-71.62,100.06,-0.5,-0.13,0.62,4,4
1772399723.794578,9480817,0.05,-0.03,0.03,-166.19,-69.69,251.12,-0.25,-4.25,-5.31,0.03,-0.01,0.04,2.19,-71.62,100.06,0.44,-0.44,1.44,4,4
1772399723.794807,9480857,0.06,-0.03,-0.02,-166.69,-69.81,251.31,0.19,-0.5,-4.31,-0.03,0.01,-0.16,2.0,-71.62,100.0,1.94,0.06,1.37,4,4
1772399723.795045,9480898,0.12,0.05,0.0,-167.0,-69.81,251.44,1.31,-0.5,-2.44,-0.03,-0.06,-0.2,1.75,-71.62,100.06,2.12,-0.06,0.44,4,4
1772399723.795281,9480937,0.2,-0.03,0.08,-167.19,-69.94,251.56,2.75,-3.19,-0.44,0.03,-0.07,-0.18,1.75,-71.69,100.06,1.69,-0.25,-0.56,3,4
1772399723.795515,9480977,0.06,-0.05,0.13,-167.12,-70.06,251.69,2.06,-4.62,1.12,0.0,-0.15,-0.05,1.81,-71.69,100.12,0.37,-0.25,-0.75,3,5
1772399723.795759,9481017,-0.01,-0.05,0.14,-166.94,-70.25,251.75,0.62,-3.5,1.25,0.0,-0.12,-0.03,1.94,-71.69,100.19,-0.56,-0.31,-0.44,4,5
1772399723.795998,9481058,-0.04,-0.04,0.1,-166.75,-70.31,251.62,-1.62,-1.69,0.75,-0.03,-0.11,0.04,2.0,-71.69,100.19,-0.5,-0.13,-0.06,4,5
1772399723.796246,9481098,0.02,0.06,0.06,-166.62,-70.31,251.5,-3.44,1.25,0.25,0.0,-0.02,0.05,2.0,-71.69,100.19,0.06,-0.06,0.62,4,5
1772399723.796492,9481138,0.13,0.1,0.01,-166.56,-70.25,251.31,-2.94,2.37,-0.81,-0.01,-0.02,-0.02,2.0,-71.69,100.19,1.12,0.31,0.19,4,5
1772399723.796724,9481177,0.28,0.11,-0.01,-166.56,-70.19,251.19,-1.69,1.81,-0.25,-0.01,-0.03,-0.09,1.94,-71.69,100.19,1.56,0.0,-0.19,4,5
1772399723.796952,9481218,0.21,0.09,0.02,-166.5,-70.12,251.12,0.06,-0.81,-0.06,0.0,-0.1,-0.07,1.94,-71.69,100.25,0.25,-1.12,0.0,4,5
1772399723.797207,9481259,0.12,0.08,0.02,-166.5,-70.19,251.12,1.5,-2.25,-0.44,-0.01,-0.06,-0.02,1.94,-71.69,100.25,-0.44,-1.56,0.37,4,5
1772399723.797454,9481299,0.03,0.03,0.01,-166.5,-70.31,251.25,1.56,-1.56,-1.0,-0.01,-0.05,-0.01,1.94,-71.62,100.25,-0.56,-1.31,0.44,4,5
1772399723.797697,9481339,0.01,0.0,0.06,-166.69,-70.37,251.37,0.81,-1.56,-1.75,0.0,-0.02,-0.03,1.94,-71.56,100.25,0.19,-1.06,0.5,4,5
1772399723.797927,9481379,0.14,0.02,0.08,-166.87,-70.37,251.44,0.5,-0.06,-1.44,-0.03,-0.01,-0.03,1.87,-71.5,100.25,1.0,-0.81,0.13,4,5
1772399723.800623,9481419,0.09,0.03,0.1,-167.0,-70.37,251.5,1.5,-0.56,-0.88,0.0,-0.06,0.0,1.87,-71.5,100.25,0.13,-0.31,-0.62,4,5
1772399723.801348,9481460,0.03,-0.01,0.09,-167.12,-70.44,251.56,2.12,-0.75,-0.5,-0.01,-0.04,-0.01,1.94,-71.5,100.25,-0.94,-0.37,-0.19,4,5
1772399723.802048,9481501,0.05,-0.06,0.04,-167.19,-70.44,251.69,1.19,0.19,-1.06,0.02,-0.02,0.0,2.0,-71.5,100.25,-0.81,-0.69,0.0,4,4
1772399723.802311,9481541,0.09,-0.03,0.06,-167.44,-70.44,251.75,0.13,1.19,-1.81,0.0,-0.07,-0.04,2.0,-71.5,100.25,-0.62,-0.44,0.13,3,4
1772399723.802546,9481580,0.12,0.05,0.07,-167.62,-70.37,251.81,-0.19,1.62,-0.88,-0.01,-0.06,-0.07,2.0,-71.5,100.25,0.75,-0.31,0.13,3,4
1772399723.802771,9481621,0.09,0.1,0.06,-167.62,-70.31,251.81,1.12,1.44,0.81,-0.01,-0.07,-0.13,2.0,-71.5,100.25,0.81,-0.56,-0.13,3,4
1772399723.803012,9481661,0.86,0.08,-0.04,-167.5,-70.25,251.87,3.62,-0.13,3.44,-0.03,-0.14,-0.04,2.06,-71.5,100.31,0.88,-0.81,-0.31,3,4
1772399723.803296,9481704,-0.47,-0.09,0.1,-167.19,-70.31,252.0,2.25,-1.69,1.69,-0.01,-0.09,-0.04,2.06,-71.5,100.31,-0.37,-0.44,-0.25,3,4
1772399723.803551,9481746,0.08,0.0,0.11,-167.0,-70.31,251.94,-0.75,-3.12,1.69,0.03,-0.13,0.0,2.12,-71.44,100.31,-1.31,-1.44,-0.31,2,4
1772399723.803791,9481787,-0.11,0.04,0.05,-166.81,-70.37,252.0,1.37,0.25,0.88,0.05,-0.02,0.02,2.12,-71.37,100.25,-1.06,-1.12,0.88,3,3
1772399723.804021,9481826,0.15,-0.01,-0.09,-166.87,-70.31,252.0,-0.13,3.5,-1.0,-0.01,0.04,0.01,2.06,-71.37,100.19,0.37,-0.56,0.81,3,3
1772399723.80455,9481868,0.02,0.06,0.02,-167.12,-70.19,252.06,0.62,4.19,-1.5,-0.05,0.0,0.05,2.0,-71.37,100.25,1.12,-0.56,0.31,3,2
1772399723.804808,9481910,0.22,0.09,0.0,-167.44,-70.0,252.19,2.31,3.12,-0.88,0.0,-0.02,-0.04,1.94,-71.37,100.25,1.69,-0.69,0.56,3,2
1772399723.805049,9481951,0.15,0.02,0.01,-167.62,-69.94,252.31,4.56,1.5,0.0,0.01,-0.11,-0.1,1.87,-71.37,100.31,1.56,-0.69,0.13,3,2
1772399723.805276,9481992,0.2,-0.01,0.06,-167.81,-69.94,252.69,4.06,0.0,0.62,0.0,-0.06,-0.14,1.87,-71.37,100.37,0.88,-0.69,0.25,3,2
1772399723.805506,9482032,0.13,-0.03,0.08,-167.94,-69.94,252.81,2.69,-1.12,0.0,0.0,-0.09,-0.02,1.81,-71.31,100.37,0.0,-1.12,-0.06,2,1
1772399723.805768,9482072,-0.04,0.0,0.07,-168.0,-70.0,252.94,1.0,-0.56,-0.94,-0.02,-0.02,0.07,1.75,-71.25,100.37,0.81,-0.75,0.31,2,1
1772399723.839056,9482113,0.07,0.0,0.09,-168.12,-69.94,253.0,1.0,1.62,-0.94,-0.03,0.0,0.05,1.75,-71.25,100.37,0.44,-0.25,0.25,2,1
1772399723.881013,9482155,0.08,0.01,0.02,-168.31,-69.87,253.06,1.5,1.56,-0.88,0.0,0.0,-0.03,1.75,-71.25,100.44,0.62,0.69,-0.25,2,1
1772399723.923585,9482198,0.14,-0.05,0.02,-168.56,-69.81,253.25,1.06,1.31,-1.12,-0.01,0.0,-0.05,1.69,-71.25,100.44,0.44,0.44,-0.44,1,1
1772399723.963504,9482237,0.16,-0.07,0.03,-168.75,-69.81,253.25,0.13,-2.69,-1.44,0.0,-0.1,-0.01,1.75,-71.25,100.44,-0.06,0.5,-0.69,2,1
1772399724.002509,9482276,0.07,-0.15,0.03,-168.81,-69.94,253.31,-0.81,-1.56,-1.12,0.0,-0.1,0.03,1.75,-71.25,100.44,-0.56,-0.06,0.25,2,2
1772399724.045631,9482319,0.1,-0.08,0.0,-168.81,-70.0,253.25,-3.37,-1.06,-1.12,-0.02,0.06,-0.13,1.69,-71.25,100.44,1.31,0.37,0.56,3,2
1772399724.087968,9482362,0.25,0.17,0.05,-168.81,-70.0,253.12,-3.0,0.37,-1.31,0.01,-0.02,-0.13,1.62,-71.25,100.44,1.25,0.69,-0.5,3,3
1772399724.133976,9482403,0.09,0.12,0.06,-168.81,-70.06,253.06,1.12,-1.37,0.25,-0.02,-0.05,0.0,1.62,-71.25,100.5,0.81,0.62,-0.44,3,3
1772399724.170149,9482444,0.1,-0.03,0.03,-168.75,-70.12,253.19,3.81,-1.0,1.44,-0.02,-0.08,-0.09,1.62,-71.25,100.5,0.31,1.06,-0.44,3,3
1772399724.210692,9482485,0.19,-0.13,0.07,-168.81,-70.12,253.31,0.81,-1.19,0.44,0.0,-0.12,-0.16,1.62,-71.31,100.56,0.94,0.56,-0.44,3,3
1772399724.250878,9482525,0.13,0.03,0.09,-168.75,-70.25,253.31,-1.31,-2.94,0.5,0.0,-0.14,-0.03,1.62,-71.31,100.56,0.13,-0.19,-0.44,3,4
1772399724.292118,9482566,0.03,0.05,0.05,-168.56,-70.37,253.19,-1.62,-2.81,0.69,-0.01,-0.08,0.0,1.62,-71.31,100.56,-0.06,0.19,-0.06,3,4
1772399724.33451,9482608,0.07,0.06,0.05,-168.37,-70.44,253.12,-2.44,-1.69,-0.56,-0.04,-0.02,0.0,1.62,-71.31,100.56,0.31,0.25,-0.37,3,4
1772399724.376889,9482651,0.12,0.05,0.05,-168.37,-70.5,253.0,-3.06,-1.75,-1.37,0.02,0.01,-0.03,1.62,-71.31,100.56,0.13,-0.19,0.44,2,4
1772399724.418625,9482693,0.05,0.04,0.0,-168.44,-70.56,252.94,-1.56,0.25,-2.12,-0.01,0.0,-0.01,1.56,-71.31,100.56,1.06,0.31,0.62,2,4
1772399724.457813,9482732,0.21,0.01,0.05,-168.69,-70.56,252.94,-0.62,1.06,-1.62,-0.01,-0.05,-0.13,1.44,-71.31,100.56,2.12,0.75,0.37,2,3
1772399724.500259,9482774,0.2,0.02,0.09,-168.87,-70.56,253.0,0.44,-0.94,-1.69,-0.01,-0.04,-0.15,1.44,-71.31,100.62,1.31,0.13,0.25,2,3
1772399724.541362,9482815,0.11,0.01,0.07,-169.0,-70.62,253.12,0.88,-2.31,-1.0,-0.02,-0.07,-0.12,1.37,-71.31,100.62,0.44,0.19,-0.37,1,2
1772399724.582595,9482856,0.07,-0.01,0.1,-169.0,-70.75,253.19,1.37,-2.56,0.0,-0.04,-0.12,-0.1,1.37,-71.31,100.62,-0.19,0.06,-0.62,2,2
1772399724.624109,9482898,0.04,-0.1,0.1,-168.94,-70.81,253.25,1.06,-1.87,1.0,-0.03,-0.09,-0.03,1.44,-71.31,100.69,-0.62,0.25,-0.37,2,2
1772399724.663148,9482937,0.02,-0.06,0.09,-168.75,-70.87,253.19,-0.94,-1.37,0.69,0.0,-0.09,-0.05,1.5,-71.31,100.69,0.44,0.13,-0.88,2,1
1772399724.702868,9482977,0.04,0.02,0.09,-168.69,-70.87,253.06,-2.25,0.25,0.37,-0.03,-0.06,0.0,1.5,-71.31,100.69,0.56,0.19,-0.25,2,1
1772399724.744782,9483019,0.05,0.09,0.03,-168.56,-70.87,252.94,-2.31,0.56,0.19,0.0,-0.08,-0.11,1.44,-71.31,100.69,1.25,0.56,-0.31,3,1
1772399724.786966,9483061,0.14,0.15,0.03,-168.56,-70.81,252.87,-0.06,2.19,0.5,-0.02,-0.06,-0.11,1.44,-71.31,100.75,1.06,0.19,-0.19,3,2
1772399724.82925,9483103,0.15,0.11,0.07,-168.56,-70.69,252.87,1.87,0.81,0.62,-0.03,-0.07,-0.11,1.37,-71.31,100.75,0.62,-0.06,0.13,3,2
1772399724.870995,9483145,0.13,-0.02,0.08,-168.69,-70.69,253.0,1.69,0.06,-0.44,0.0,-0.09,-0.07,1.37,-71.31,100.75,0.06,-0.56,0.31,3,2
1772399724.910703,9483185,0.09,0.03,0.05,-168.81,-70.69,253.12,0.37,0.37,-1.12,-0.04,-0.06,-0.07,1.37,-71.31,100.75,0.44,-0.06,0.31,4,2
1772399724.952707,9483227,0.12,0.01,0.08,-169.0,-70.69,253.19,1.12,0.25,-1.69,-0.03,-0.08,-0.06,1.37,-71.31,100.75,-0.19,-0.06,0.25,4,2
1772399724.994112,9483268,0.11,-0.02,0.11,-169.12,-70.75,253.31,1.06,0.37,-0.06,-0.02,-0.1,-0.07,1.37,-71.31,100.75,0.37,-0.13,-0.19,3,2
1772399725.034818,9483309,0.09,0.0,0.04,-169.19,-70.69,253.37,0.94,1.06,0.25,0.0,-0.1,-0.04,1.37,-71.31,100.75,0.69,-0.19,0.13,3,2
1772399725.07665,9483351,0.14,0.02,0.0,-169.19,-70.69,253.37,-0.37,1.12,0.06,-0.06,-0.09,-0.09,1.37,-71.31,100.81,0.88,0.06,0.25,3,2
1772399725.118566,9483393,0.15,0.1,0.04,-169.25,-70.62,253.37,0.19,0.56,-0.31,-0.04,-0.07,-0.08,1.31,-71.31,100.81,0.37,-0.31,0.0,4,2
1772399725.158606,9483433,0.11,0.09,0.04,-169.25,-70.62,253.37,0.37,0.06,-0.13,0.0,-0.02,-0.04,1.31,-71.31,100.81,-0.13,-0.19,0.25,2,3
1772399725.201305,9483475,0.08,-0.02,0.07,-169.31,-70.62,253.37,0.62,0.25,-0.81,-0.01,-0.08,-0.05,1.31,-71.31,100.81,0.19,-0.19,0.13,2,2
1772399725.243425,9483517,0.15,-0.01,0.05,-169.37,-70.62,253.44,-0.06,0.56,-0.19,-0.01,-0.07,-0.13,1.31,-71.31,100.81,0.56,-0.06,0.13,2,2
1772399725.28454,9483559,0.07,0.03,0.04,-169.37,-70.62,253.44,0.13,-0.06,0.0,-0.02,-0.06,-0.06,1.31,-71.31,100.81,0.25,-0.37,0.19,2,2
1772399725.326101,9483600,0.05,0.06,0.1,-169.37,-70.62,253.44,0.81,0.69,0.13,-0.04,-0.07,-0.11,1.31,-71.31,100.81,-0.06,-0.31,0.06,2,2
1772399725.366003,9483640,0.02,0.04,0.1,-169.44,-70.56,253.5,0.75,1.75,-0.13,-0.02,-0.06,-0.09,1.31,-71.31,100.81,-0.31,-0.37,-0.19,3,2
1772399725.406212,9483680,0.02,0.03,0.15,-169.5,-70.5,253.5,1.06,2.5,0.19,-0.01,-0.1,-0.05,1.31,-71.31,100.81,-0.5,-0.56,-0.06,3,2
1772399725.447457,9483721,0.0,0.06,0.17,-169.62,-70.37,253.56,1.75,4.0,0.75,0.0,-0.1,-0.14,1.31,-71.31,100.81,-0.5,-0.62,-0.31,4,2
1772399725.488895,9483763,-0.04,0.11,0.15,-169.69,-70.12,253.62,1.81,5.75,1.31,0.0,-0.13,-0.09,1.37,-71.25,100.75,-0.94,-0.94,-0.25,3,2
1772399725.530983,9483805,-0.16,0.21,0.14,-169.69,-69.87,253.62,3.37,9.75,3.25,-0.02,-0.1,-0.08,1.37,-71.25,100.75,0.13,-1.0,0.06,3,3
1772399725.570637,9483845,0.07,0.23,0.13,-169.44,-69.37,253.62,8.31,14.5,7.44,-0.06,-0.02,0.08,1.37,-71.19,100.75,-1.06,-0.88,0.0,3,4
1772399725.609861,9483884,0.25,0.1,0.09,-169.31,-68.81,253.81,12.06,13.0,7.75,-0.02,-0.04,-0.15,1.44,-71.19,100.75,-0.69,-0.5,0.0,4,5
1772399725.652433,9483926,0.28,-0.06,-0.02,-169.31,-68.31,254.25,12.06,9.5,6.19,-0.05,-0.03,-0.14,1.5,-71.19,100.75,-0.69,-0.13,-1.19,4,6
1772399725.694192,9483968,0.2,-0.1,0.02,-169.37,-68.0,254.62,9.81,6.0,3.94,-0.21,-0.2,0.0,1.44,-71.0,100.87,9.06,-9.25,-0.19,3,6
1772399725.735949,9484010,0.03,-0.18,0.01,-169.56,-67.69,255.06,6.56,5.62,2.31,0.0,-0.13,-0.03,1.5,-70.94,100.81,-1.56,-1.19,0.13,3,6
1772399725.774437,9484049,0.12,0.0,-0.03,-169.69,-67.44,255.19,2.19,6.62,0.75,-0.11,-0.03,0.0,1.5,-70.87,100.81,2.25,-2.31,0.94,3,5
1772399725.813967,9484088,0.2,-0.03,0.02,-169.94,-67.19,255.25,0.31,5.69,-2.19,0.0,-0.08,-0.11,1.44,-70.87,100.81,-0.56,-0.88,0.0,3,6
1772399725.855796,9484130,0.24,0.03,0.0,-170.19,-67.06,255.31,-0.62,3.69,-2.0,0.15,-0.04,-0.15,1.5,-70.81,100.81,-0.06,-1.31,0.0,2,6
1772399725.897213,9484171,0.13,0.0,-0.01,-170.37,-66.94,255.31,0.31,2.25,-1.12,-0.08,-0.07,-0.03,1.37,-70.69,100.87,-0.69,-0.81,-0.44,2,5
1772399725.938273,9484212,0.12,0.02,-0.06,-170.44,-66.87,255.31,0.44,1.25,-0.37,-0.1,-0.11,0.01,1.44,-70.69,100.87,3.75,-3.19,0.0,2,5
1772399725.979623,9484253,0.13,-0.03,-0.03,-170.44,-66.81,255.31,0.5,0.62,-0.13,-0.07,-0.08,0.0,1.31,-70.56,100.87,-0.19,-0.69,-0.44,2,3
1772399726.020865,9484295,0.11,0.0,-0.02,-170.44,-66.81,255.31,-0.69,0.62,-0.19,0.0,-0.07,-0.17,1.37,-70.56,100.87,0.37,-1.44,-0.25,2,2
1772399726.060535,9484335,0.11,0.03,0.0,-170.44,-66.81,255.31,-0.81,0.44,-0.06,0.0,-0.13,0.01,1.06,-70.37,101.06,6.75,-3.19,0.19,2,2
1772399726.102115,9484376,0.03,0.09,0.01,-170.37,-66.81,255.25,1.19,1.06,2.06,0.03,-0.1,-0.12,1.06,-70.31,101.06,-0.31,-1.25,-0.06,2,1
1772399726.143532,9484418,0.15,0.14,0.03,-170.12,-66.69,255.25,4.56,2.06,5.75,-0.03,-0.06,-0.01,1.06,-70.25,101.06,0.75,-1.25,0.25,2,1
1772399726.185642,9484460,0.2,0.06,-0.01,-169.81,-66.62,255.31,7.06,0.13,5.37,-0.06,-0.04,-0.06,1.0,-70.25,101.06,0.69,-0.37,-0.19,2,1
1772399726.224538,9484498,0.18,-0.09,-0.01,-169.69,-66.62,255.62,5.31,-2.25,2.56,0.0,-0.03,-0.12,0.94,-70.19,101.12,3.12,-2.31,-0.19,2,1
1772399726.263792,9484537,0.15,-0.14,0.02,-169.69,-66.69,255.75,1.12,-2.81,-0.25,-0.01,-0.09,-0.07,0.94,-70.19,101.12,0.19,-0.31,-0.44,2,0
1772399726.305643,9484579,0.08,-0.03,0.04,-169.75,-66.81,255.81,-1.62,-2.94,-1.94,-0.04,-0.11,-0.03,0.94,-70.19,101.12,0.25,-0.13,-0.06,2,0
1772399726.347561,9484621,0.01,0.01,0.04,-169.81,-66.87,255.81,-1.12,-1.75,-1.44,-0.04,-0.1,-0.12,0.94,-70.19,101.12,-0.13,-0.06,-0.06,3,2
1772399726.389077,9484663,0.09,0.01,0.04,-169.87,-67.0,255.75,-0.81,-1.25,-0.19,-0.06,-0.11,-0.11,0.94,-70.19,101.12,0.19,-0.37,-0.31,3,2
1772399726.430079,9484704,0.09,0.02,0.07,-169.75,-67.06,255.69,-0.88,-2.12,0.81,-0.03,-0.11,-0.1,0.94,-70.19,101.12,0.0,-0.56,-0.37,3,3
1772399726.470306,9484744,0.06,0.04,0.07,-169.69,-67.12,255.69,-0.37,-1.37,0.56,-0.01,-0.14,-0.03,0.94,-70.19,101.12,0.19,0.0,-0.31,3,3
1772399726.511116,9484785,0.06,0.03,0.03,-169.62,-67.12,255.62,-1.06,-0.62,0.37,-0.06,-0.11,-0.09,0.94,-70.19,101.12,0.94,0.56,-0.06,3,3
1772399726.553086,9484827,0.07,0.11,0.05,-169.56,-67.12,255.56,-0.81,-0.19,-0.37,-0.04,-0.06,-0.13,0.88,-70.19,101.19,0.31,-0.06,0.19,4,4
1772399726.594615,9484869,0.12,0.0,0.04,-169.56,-67.19,255.56,0.0,-0.62,-0.44,-0.01,-0.12,-0.12,0.88,-70.19,101.19,0.19,-0.19,-0.06,4,4
1772399726.63608,9484910,0.09,0.04,0.05,-169.56,-67.19,255.56,-0.13,-1.0,-0.06,0.01,-0.1,-0.05,0.88,-70.19,101.19,0.06,-0.31,-0.06,4,4
1772399726.676545,9484951,0.07,0.01,0.08,-169.56,-67.19,255.56,-0.37,-0.06,0.25,-0.02,-0.12,-0.07,0.88,-70.19,101.19,0.13,-0.25,0.13,4,5
1772399726.715776,9484990,0.02,0.05,0.06,-169.56,-67.19,255.56,-0.62,0.37,0.06,-0.07,-0.09,0.0,0.88,-70.19,101.19,0.31,-0.19,0.0,4,5
1772399726.758254,9485032,0.08,0.01,0.02,-169.56,-67.19,255.56,-0.81,1.0,0.06,-0.04,-0.07,-0.04,0.88,-70.19,101.19,0.37,-0.5,0.0,3,3
1772399726.800252,9485074,0.07,0.06,0.02,-169.56,-67.12,255.5,-0.31,1.5,-0.19,0.0,-0.09,-0.11,0.88,-70.19,101.19,0.13,-0.19,0.13,3,3
1772399726.841689,9485116,0.15,0.03,0.04,-169.56,-67.06,255.5,0.06,1.19,0.31,-0.02,-0.1,-0.1,0.88,-70.19,101.19,0.44,0.13,-0.06,3,2
1772399726.883581,9485158,0.13,0.04,0.05,-169.56,-67.06,255.5,-0.19,-0.31,0.0,-0.01,-0.1,-0.06,0.88,-70.19,101.19,0.62,0.19,0.19,2,2
1772399726.924875,9485199,0.13,0.06,0.01,-169.56,-67.12,255.5,-1.12,-0.44,-0.75,-0.05,-0.11,-0.11,0.88,-70.19,101.19,1.0,0.69,-0.06,2,2
1772399726.965196,9485239,0.08,0.09,0.06,-169.62,-67.12,255.44,-0.62,-1.12,-1.0,-0.02,-0.16,-0.02,0.88,-70.25,101.19,0.06,0.94,-0.06,2,1
1772399727.006794,9485281,0.0,0.0,0.07,-169.69,-67.19,255.5,0.44,-0.13,-1.06,-0.01,-0.1,-0.04,0.88,-70.25,101.19,-0.19,0.56,0.19,2,1
1772399727.047863,9485322,0.07,-0.01,0.03,-169.81,-67.12,255.56,-0.37,1.44,-1.37,-0.02,-0.04,-0.06,0.88,-70.31,101.19,0.56,1.06,0.19,2,1
1772399727.089259,9485363,0.13,0.01,0.04,-170.0,-67.12,255.62,-0.69,1.44,-1.56,-0.03,-0.07,-0.15,0.81,-70.31,101.25,0.69,1.06,0.06,1,2
1772399727.130341,9485404,0.2,0.0,0.05,-170.12,-67.06,255.62,-0.25,-0.06,-0.69,-0.01,-0.13,-0.15,0.88,-70.37,101.25,0.69,0.69,-0.81,1,2
1772399727.169514,9485443,0.07,0.07,0.05,-170.12,-67.06,255.62,-0.56,-1.12,-0.19,-0.02,-0.17,-0.09,0.94,-70.37,101.31,0.94,0.81,-0.81,1,2
1772399727.211093,9485485,0.04,0.06,0.05,-170.12,-67.12,255.62,-0.37,-0.94,0.19,-0.07,-0.1,-0.02,1.0,-70.44,101.37,0.81,0.88,-1.12,1,3
1772399727.254473,9485527,0.05,0.01,0.05,-170.12,-67.12,255.62,-0.13,-0.5,-0.13,-0.07,-0.12,-0.07,1.12,-70.5,101.5,1.81,1.87,-1.25,2,3
1772399727.294433,9485568,-0.06,0.15,0.0,-170.12,-67.12,255.62,-0.75,-0.19,-0.44,-0.05,0.02,0.07,1.12,-70.56,101.56,3.37,0.5,-1.25,2,3
1772399727.335509,9485610,0.04,0.08,0.01,-170.25,-67.06,255.69,1.25,2.0,-1.75,-0.07,-0.13,0.03,1.06,-70.56,101.81,5.37,1.06,-1.12,2,3
1772399727.374585,9485649,0.25,0.01,0.03,-170.44,-67.0,255.81,0.62,2.0,-1.31,-0.04,-0.18,-0.02,1.0,-70.62,101.94,5.37,1.25,-0.5,2,3
1772399727.415208,9485689,0.31,-0.07,-0.03,-170.69,-67.0,255.87,-0.5,-0.69,-3.06,0.01,-0.17,-0.12,0.88,-70.62,102.06,3.25,0.25,0.44,2,3
1772399727.457321,9485731,0.19,-0.12,-0.02,-170.94,-67.12,255.87,-4.06,-2.62,-4.94,-0.03,-0.2,-0.26,0.69,-70.69,102.19,2.5,-0.75,1.37,2,4
1772399727.498178,9485772,0.23,-0.1,0.0,-171.12,-67.25,255.75,-8.38,-4.69,-5.25,-0.04,-0.19,-0.21,0.62,-70.62,102.19,2.12,-2.81,2.0,3,3
1772399727.538664,9485812,0.18,-0.01,0.09,-171.12,-67.5,255.44,-10.31,-6.81,-4.94,-0.02,-0.1,-0.04,0.37,-70.56,102.12,1.25,-3.06,2.75,3,3
1772399727.577517,9485852,0.15,0.08,0.1,-171.06,-67.81,255.06,-10.63,-7.87,-5.0,0.06,-0.07,-0.24,0.25,-70.5,102.0,-9.69,2.81,1.81,3,2
1772399727.617124,9485891,0.08,0.12,0.13,-171.06,-68.19,254.69,-9.94,-8.13,-5.19,-0.02,-0.16,-0.06,0.0,-70.5,101.94,1.44,-3.5,3.19,2,2
1772399727.658441,9485932,-0.02,0.16,0.13,-171.0,-68.5,254.37,-7.87,-8.13,-4.06,0.0,-0.1,0.04,-0.44,-70.31,101.87,1.75,-2.81,3.19,2,2
1772399727.699243,9485973,-0.06,0.18,0.1,-171.0,-68.81,254.19,-5.75,-5.06,-3.81,-0.02,-0.08,-0.04,-0.81,-70.25,101.81,1.75,-1.81,3.37,1,2
1772399727.739627,9486013,-0.06,0.16,0.05,-171.06,-69.0,254.0,-3.44,-1.56,-3.56,-0.04,-0.08,0.0,-1.25,-70.19,101.75,2.87,-1.44,3.25,1,2
1772399727.778589,9486052,0.06,0.14,0.08,-171.25,-69.06,253.94,-1.75,-0.06,-2.87,0.15,-0.03,-0.01,-1.5,-70.25,101.62,-4.75,3.0,2.19,1,2
1772399727.818096,9486092,0.18,-0.01,0.03,-171.44,-69.06,254.06,1.37,0.56,-2.19,-0.05,-0.04,-0.09,-1.75,-70.25,101.56,1.75,-0.69,1.69,1,2
1772399727.859279,9486133,0.17,-0.08,0.04,-171.69,-69.06,254.25,1.81,-1.12,-0.81,0.07,-0.06,-0.19,-1.94,-70.25,101.56,-0.94,2.5,1.12,1,2
1772399727.90004,9486174,0.18,-0.13,0.02,-171.75,-69.12,254.37,1.0,-2.44,-0.37,-0.24,-0.07,-0.23,-2.12,-70.31,101.56,0.88,0.62,1.06,3,2
1772399727.94082,9486214,0.22,-0.14,0.05,-171.81,-69.25,254.44,-0.25,-4.19,-0.62,-0.02,-0.06,-0.19,-2.19,-70.37,101.5,0.31,0.0,0.88,3,3
1772399727.979611,9486253,0.08,-0.15,0.11,-171.81,-69.44,254.44,-1.44,-6.0,-0.75,-0.1,0.0,-0.12,-2.19,-70.37,101.5,-0.81,0.31,0.56,3,3
1772399728.019137,9486293,0.03,-0.11,0.1,-171.75,-69.69,254.37,-2.69,-5.87,-1.0,-0.05,0.0,-0.07,-2.12,-70.44,101.5,-1.62,1.19,0.25,3,2
1772399728.06025,9486334,0.0,-0.09,0.11,-171.75,-69.94,254.31,-3.06,-4.69,-0.69,-0.07,0.0,-0.03,-2.06,-70.44,101.44,-0.69,0.62,0.19,3,2
1772399728.100915,9486375,-0.05,-0.02,0.09,-171.62,-70.06,254.19,-2.31,-2.62,-0.75,-0.04,-0.02,-0.03,-2.06,-70.44,101.44,-0.19,0.31,0.0,3,2
1772399728.141285,9486415,0.03,-0.05,0.08,-171.56,-70.19,254.12,-1.5,-1.56,0.69,-0.01,-0.08,-0.08,-2.0,-70.44,101.5,-0.06,0.69,-1.19,3,3
1772399728.180117,9486454,0.12,0.01,0.07,-171.31,-70.25,254.0,-1.31,-1.12,1.94,0.0,-0.13,-0.03,-1.81,-70.5,101.5,-0.25,1.0,-1.31,3,2
1772399728.220049,9486494,0.08,-0.02,0.05,-171.0,-70.25,253.81,-1.44,-0.56,2.37,-0.01,-0.14,-0.13,-1.69,-70.5,101.56,-0.19,1.06,-1.25,3,3
1772399728.261255,9486535,0.22,0.0,0.01,-170.69,-70.25,253.62,-2.56,-1.25,2.37,-0.01,-0.14,-0.11,-1.44,-70.62,101.62,-1.12,0.81,-1.06,3,3
1772399728.301612,9486575,0.19,0.0,0.0,-170.31,-70.31,253.37,-3.87,-3.06,2.37,-0.03,-0.13,-0.14,-1.19,-70.69,101.69,-0.56,0.88,-0.88,2,2
1772399728.342204,9486616,0.14,0.05,0.04,-169.81,-70.37,253.06,-4.37,-3.75,2.25,-0.03,-0.09,-0.07,-1.12,-70.69,101.69,0.13,0.94,-0.56,2,2
1772399728.381308,9486655,0.12,0.09,0.08,-169.31,-70.5,252.75,-4.31,-3.75,2.19,-0.22,-0.06,0.02,-1.06,-70.75,101.69,-3.06,3.75,-0.75,2,2
1772399728.420896,9486695,0.07,0.15,0.08,-168.81,-70.62,252.44,-3.69,-3.87,2.37,-0.05,-0.06,-0.1,-0.94,-70.87,101.69,1.31,0.69,-0.44,2,2
1772399728.461788,9486736,0.07,0.13,0.05,-168.31,-70.75,252.19,-2.25,-3.44,1.5,0.02,-0.03,-0.04,-1.0,-70.94,101.75,1.56,1.5,-0.13,2,2
1772399728.502456,9486776,0.01,0.12,0.08,-168.0,-70.87,252.06,-1.06,-2.56,0.62,-0.04,-0.04,-0.03,-1.0,-70.94,101.75,1.19,0.94,-0.19,2,2
1772399728.543037,9486817,0.05,0.08,0.06,-167.87,-71.0,252.0,0.25,-1.56,-0.19,-0.03,-0.06,-0.04,-1.06,-71.0,101.81,1.0,0.75,-0.44,2,1
1772399728.583123,9486857,0.08,0.03,0.06,-167.87,-71.0,252.0,0.81,-1.25,-0.31,-0.01,-0.1,-0.11,-1.06,-71.0,101.81,0.5,0.44,-0.31,2,1
1772399728.622239,9486896,0.08,-0.01,0.09,-167.87,-71.06,252.06,0.75,-1.44,-0.19,-0.01,-0.09,-0.14,-1.06,-71.06,101.81,0.62,0.56,-0.31,2,1
1772399728.663133,9486937,0.08,-0.03,0.08,-167.81,-71.12,252.06,0.25,-1.5,0.56,-0.02,-0.12,-0.1,-1.0,-71.06,101.87,0.5,0.25,-0.31,2,1
1772399728.703472,9486977,0.01,0.02,0.1,-167.75,-71.19,252.06,0.37,-0.69,0.75,0.16,-0.08,-0.16,-0.81,-71.12,101.81,-4.75,3.0,-0.69,2,2
1772399728.74354,9487018,0.03,0.01,0.12,-167.62,-71.19,252.06,0.75,0.44,0.94,-0.02,-0.07,-0.1,-0.81,-71.19,101.81,0.44,0.06,-0.25,2,3
1772399728.7839,9487058,0.03,0.0,0.12,-167.56,-71.19,252.0,-0.13,0.81,1.19,0.0,-0.08,-0.09,-0.81,-71.19,101.81,-0.19,-0.19,-0.44,2,3
1772399728.822917,9487097,0.08,0.04,0.12,-167.5,-71.12,252.0,-0.13,1.69,0.44,-0.03,-0.08,-0.09,-0.75,-71.19,101.81,-0.44,0.0,-0.13,2,3
1772399728.864157,9487138,0.11,0.02,0.08,-167.56,-71.0,252.0,-0.31,2.06,0.13,-0.03,-0.11,-0.1,-0.69,-71.19,101.81,-0.69,-0.37,0.25,3,3
1772399728.904176,9487178,0.07,0.09,0.04,-167.62,-70.94,252.0,0.0,2.12,0.25,-0.04,-0.05,-0.06,-0.75,-71.19,101.81,0.13,-1.0,0.81,2,3
1772399728.94502,9487219,0.1,0.05,0.03,-167.69,-70.87,252.0,1.69,2.56,-0.56,-0.02,-0.11,-0.11,-0.69,-71.19,101.81,-0.06,-0.37,-0.06,2,3
1772399728.983924,9487258,0.14,0.01,0.09,-167.87,-70.75,252.12,1.81,2.5,-0.31,-0.02,-0.08,-0.09,-0.69,-71.12,101.81,-0.31,-1.0,0.37,3,3
1772399729.023281,9487297,0.1,0.0,0.08,-168.0,-70.69,252.19,1.56,1.75,-0.31,0.0,-0.06,-0.08,-0.69,-71.12,101.81,0.0,-0.94,0.31,2,3
1772399729.064513,9487338,0.11,0.01,0.04,-168.06,-70.62,252.25,0.5,1.69,-0.62,-0.04,-0.08,-0.05,-0.69,-71.12,101.81,-0.62,-0.62,0.25,2,3
1772399729.105257,9487379,0.04,0.01,0.06,-168.19,-70.56,252.31,0.75,1.44,-0.69,-0.02,-0.1,-0.03,-0.69,-71.06,101.81,-0.56,-0.31,0.19,2,0
1772399729.145367,9487419,0.06,0.06,0.04,-168.31,-70.5,252.37,1.19,2.62,0.0,-0.03,-0.02,-0.03,-0.69,-71.06,101.81,0.5,-0.81,0.44,2,0
1772399729.184214,9487458,0.16,0.06,0.04,-168.44,-70.37,252.44,2.0,2.44,0.06,0.0,-0.08,-0.07,-0.69,-71.06,101.81,0.88,-0.88,0.0,2,0
1772399729.223881,9487498,0.17,0.12,0.06,-168.56,-70.31,252.56,3.62,1.25,0.94,0.0,-0.09,-0.1,-0.75,-71.0,101.81,0.81,-0.94,0.37,2,0
1772399729.265285,9487539,0.14,0.06,0.05,-168.62,-70.25,252.81,6.44,0.5,2.44,-0.04,-0.07,-0.1,-0.81,-70.94,101.87,0.69,-1.0,0.62,2,0
1772399729.305613,9487580,0.11,0.0,0.02,-168.56,-70.25,253.06,6.37,-0.25,2.12,-0.02,-0.07,-0.09,-0.81,-70.94,101.87,0.56,-0.69,0.44,2,1
1772399729.346163,9487620,0.03,-0.01,0.07,-168.62,-70.25,253.31,6.0,0.19,0.94,-0.03,-0.04,-0.06,-0.81,-70.87,101.87,0.06,-0.94,0.13,2,1
1772399729.385287,9487659,0.06,-0.02,0.07,-168.75,-70.25,253.62,5.12,0.75,1.19,-0.02,-0.08,-0.01,-0.81,-70.87,101.87,-0.13,-0.94,0.31,2,1
1772399729.425008,9487699,0.04,-0.04,0.05,-168.81,-70.19,253.81,4.5,0.62,1.12,-0.02,-0.03,-0.03,-0.81,-70.81,101.87,-0.06,-0.56,0.31,3,0
1772399729.466279,9487740,0.04,-0.06,0.06,-168.94,-70.12,254.0,3.56,1.81,0.62,-0.03,-0.02,-0.02,-0.81,-70.81,101.87,-0.44,-1.06,0.31,3,1
1772399729.506605,9487781,0.11,-0.06,0.03,-169.06,-70.06,254.19,2.81,2.37,0.31,-0.02,-0.01,-0.07,-0.81,-70.81,101.87,0.19,-0.44,0.44,4,1
1772399729.546936,9487821,0.17,-0.04,0.06,-169.25,-70.0,254.31,1.81,2.12,0.19,-0.02,-0.04,-0.14,-0.81,-70.81,101.87,0.94,-0.06,0.19,4,1
1772399729.585934,9487860,0.17,-0.01,0.05,-169.31,-69.94,254.37,1.56,1.0,0.25,-0.05,-0.07,-0.11,-0.88,-70.81,101.94,0.88,-0.25,0.06,4,1
1772399729.625665,9487900,0.11,-0.02,0.08,-169.31,-69.94,254.44,1.62,0.13,0.94,0.01,-0.09,-0.08,-0.88,-70.81,101.94,0.0,-0.56,0.0,4,1
1772399729.666988,9487941,0.0,0.0,0.07,-169.19,-69.87,254.5,1.37,0.31,2.44,-0.06,-0.09,-0.03,-0.88,-70.81,101.94,-0.19,-0.25,0.19,3,1
1772399729.707365,9487981,0.0,-0.03,0.07,-169.06,-69.87,254.44,1.31,1.75,1.94,-0.01,-0.07,-0.07,-0.88,-70.81,101.87,-0.75,-0.06,0.19,3,1
1772399729.747818,9488022,0.11,-0.05,0.06,-168.94,-69.75,254.44,-0.06,2.69,1.75,0.01,-0.04,-0.07,-0.81,-70.81,101.87,-0.31,0.06,-0.06,3,1
1772399729.786707,9488061,0.07,0.02,0.05,-168.81,-69.62,254.31,-0.69,2.69,1.5,0.0,-0.05,-0.08,-0.81,-70.81,101.87,0.37,0.69,-0.13,3,1
1772399729.82654,9488101,0.15,0.07,0.01,-168.69,-69.5,254.19,-1.31,3.19,1.06,-0.05,-0.08,-0.1,-0.88,-70.81,101.87,1.31,0.44,-0.19,3,1
1772399729.86784,9488142,0.16,0.09,0.0,-168.56,-69.37,254.06,-0.5,1.69,0.75,-0.05,-0.09,-0.11,-0.94,-70.81,101.94,1.25,0.88,-0.13,3,0
1772399729.908359,9488182,0.13,0.07,0.03,-168.56,-69.31,254.06,-0.31,0.75,-0.06,-0.02,-0.01,-0.07,-0.94,-70.87,101.94,0.25,0.75,0.25,2,0
1772399729.948871,9488223,0.11,0.01,0.07,-168.62,-69.31,254.06,-0.37,0.88,-1.44,-0.01,-0.04,-0.06,-0.88,-70.87,101.94,-0.81,1.0,0.19,2,0
1772399729.989182,9488263,0.13,0.03,0.08,-168.75,-69.31,254.06,-1.37,0.75,-0.75,-0.04,-0.07,-0.14,-0.88,-70.94,101.94,-0.19,1.0,-0.25,2,0
1772399730.029129,9488303,0.04,0.04,0.11,-168.75,-69.25,254.06,0.0,-0.13,0.56,-0.01,-0.12,-0.05,-0.88,-70.94,101.94,0.0,0.31,-0.44,2,1
1772399730.069331,9488343,-0.02,-0.02,0.08,-168.69,-69.25,254.06,0.37,1.0,1.37,-0.02,-0.02,0.0,-0.88,-70.94,101.94,0.0,0.19,0.25,2,1
1772399730.109516,9488384,-0.03,0.03,0.06,-168.62,-69.19,254.0,-0.56,2.94,0.75,-0.03,-0.05,-0.06,-0.88,-70.94,101.94,0.31,0.13,0.19,2,1
1772399730.149801,9488424,0.01,0.05,0.16,-168.62,-69.06,253.94,-0.37,2.69,0.62,-0.04,-0.06,-0.07,-0.88,-70.94,101.94,-0.44,-0.44,0.31,3,1
1772399730.188829,9488463,0.0,0.09,0.15,-168.62,-68.94,253.87,0.13,3.87,0.62,-0.02,-0.09,-0.03,-0.94,-70.94,101.94,-0.62,-0.13,0.69,2,1
1772399730.228597,9488503,0.0,0.08,0.08,-168.81,-68.75,253.87,0.5,5.75,-1.5,-0.01,-0.01,-0.11,-0.94,-70.94,101.87,-2.37,-0.19,1.5,3,2
1772399730.269454,9488544,0.05,0.07,0.1,-169.19,-68.5,254.0,0.69,7.5,-3.25,-0.05,-0.03,0.0,-1.0,-70.94,101.69,-2.87,0.06,1.25,4,2
1772399730.310028,9488584,0.14,0.03,0.01,-169.62,-68.25,254.06,0.37,7.5,-3.06,-0.07,0.03,-0.06,-1.06,-70.94,101.62,-0.37,0.06,0.62,4,2
1772399730.350249,9488624,0.24,0.09,0.02,-170.06,-68.0,254.19,1.69,5.87,-2.44,0.04,0.06,-0.17,-1.12,-70.94,101.62,1.81,-0.56,0.25,4,1
1772399730.389396,9488664,0.19,0.07,0.01,-170.44,-67.81,254.37,3.81,4.0,-0.94,-0.04,0.03,-0.12,-1.25,-70.94,101.69,3.87,-0.69,0.19,4,1
1772399730.429378,9488703,0.17,0.08,0.03,-170.75,-67.69,254.69,5.69,2.31,-0.62,-0.05,0.02,-0.18,-1.37,-70.94,101.81,3.37,-0.5,-0.88,3,1
1772399730.470694,9488745,0.14,-0.04,0.09,-171.0,-67.69,255.06,8.06,0.88,1.44,-0.04,-0.02,-0.07,-1.37,-70.94,102.0,3.0,-0.94,-1.62,3,1
1772399730.511128,9488785,0.07,-0.15,0.1,-171.12,-67.62,255.44,7.44,0.37,2.75,-0.02,-0.11,-0.03,-1.25,-70.87,102.12,1.5,-1.31,-1.44,3,1
1772399730.551281,9488825,0.13,-0.18,0.04,-171.19,-67.62,255.75,5.94,1.56,0.81,0.13,-0.02,-0.02,-1.12,-70.87,102.19,2.37,-0.62,-1.37,3,1
1772399730.590928,9488864,-0.08,-0.16,-0.02,-171.5,-67.44,256.06,4.06,6.0,-2.87,-0.13,-0.1,0.07,-1.12,-70.81,102.31,-1.5,-0.13,-1.31,3,1
1772399730.630619,9488904,0.0,-0.1,-0.06,-172.0,-67.37,256.25,-1.94,3.12,-4.19,0.0,-0.14,-0.1,-0.88,-70.81,102.31,-2.06,0.69,-1.31,3,0
1772399730.671822,9488945,0.24,0.03,0.0,-172.19,-67.19,256.19,-2.75,2.44,-1.37,-0.16,-0.15,-0.04,-0.56,-70.81,102.37,-1.0,-0.56,-1.69,3,0
1772399730.712093,9488986,0.19,0.01,0.03,-172.06,-67.19,256.0,-1.75,0.25,2.69,0.01,-0.14,-0.19,-0.31,-70.81,102.44,-0.25,-0.88,-1.12,3,0
1772399730.752286,9489026,0.22,0.1,0.05,-171.69,-67.19,255.81,-1.31,-2.69,4.19,-0.08,-0.06,-0.11,-0.13,-70.81,102.5,-0.37,-1.12,-1.06,3,0
1772399730.791654,9489065,0.18,0.09,0.09,-171.19,-67.25,255.56,-2.06,-3.81,3.81,-0.01,-0.12,-0.07,0.0,-70.81,102.56,-0.19,-1.19,-0.81,3,0
1772399730.831393,9489105,-0.07,0.13,0.1,-170.75,-67.37,255.31,-2.19,-2.75,2.75,-0.08,-0.12,-0.02,0.06,-70.75,102.56,2.25,-2.5,-0.31,3,1
1772399730.872242,9489146,0.0,0.08,0.08,-170.44,-67.44,255.06,-3.06,-0.37,1.5,-0.03,-0.11,0.02,0.06,-70.69,102.62,-0.5,-1.12,-0.06,3,1
1772399730.91265,9489187,0.05,0.08,0.07,-170.19,-67.44,254.81,-3.87,0.88,0.94,-0.02,-0.1,-0.08,0.13,-70.62,102.62,-0.19,-1.19,0.31,3,1
1772399730.952668,9489227,0.19,0.1,0.07,-170.0,-67.37,254.56,-4.31,0.37,0.31,-0.02,-0.01,-0.18,0.13,-70.62,102.62,1.0,-1.19,0.0,4,1
1772399730.992277,9489266,0.24,0.14,0.09,-169.81,-67.37,254.31,-4.06,-0.25,0.06,-0.04,-0.01,-0.19,0.06,-70.62,102.69,1.62,-1.19,-0.13,4,1
1772399731.032295,9489306,0.31,0.08,0.06,-169.69,-67.44,254.12,-2.87,-2.75,-0.31,-0.02,0.05,-0.18,0.0,-70.56,102.69,1.81,-0.62,-0.5,3,1
1772399731.073112,9489347,0.3,-0.02,0.03,-169.56,-67.62,254.06,-2.56,-6.56,-1.75,0.0,-0.01,-0.2,0.0,-70.62,102.81,2.5,0.06,-0.75,2,1
1772399731.113896,9489388,0.33,-0.09,-0.06,-169.56,-67.94,254.0,-3.06,-10.63,-2.31,0.03,0.0,-0.05,-0.13,-70.62,102.87,4.94,-1.81,-0.25,2,1
1772399731.153937,9489428,0.03,-0.06,0.0,-169.44,-68.44,254.0,-3.12,-14.13,-2.56,-0.01,-0.11,0.0,-0.13,-70.56,103.0,-0.62,-0.31,-1.06,2,1
1772399731.192956,9489467,-0.07,-0.17,0.05,-169.25,-69.0,253.94,-3.19,-12.63,-1.81,0.0,-0.14,0.1,0.0,-70.56,103.0,-1.44,0.44,-1.5,2,1
1772399731.233227,9489507,-0.03,-0.15,0.04,-168.94,-69.44,253.75,-5.19,-10.38,-0.25,0.0,-0.11,0.14,0.25,-70.56,103.06,-0.81,0.62,-1.37,2,1
1772399731.274116,9489548,-0.07,-0.05,0.03,-168.5,-69.75,253.44,-8.06,-7.5,-0.44,-0.02,-0.07,0.08,0.44,-70.56,103.06,0.19,1.62,-0.5,2,1
1772399731.3142,9489588,-0.04,0.05,-0.03,-168.12,-70.0,253.06,-9.0,-4.44,-1.12,0.01,-0.06,0.0,0.37,-70.69,103.12,0.75,2.12,0.25,2,1
1772399731.35436,9489629,0.13,0.12,0.05,-167.81,-70.12,252.62,-8.31,-3.31,-1.75,-0.04,0.0,-0.08,0.37,-70.75,103.12,2.06,1.94,0.56,1,1
1772399731.393826,9489668,0.13,0.14,0.1,-167.62,-70.31,252.31,-7.06,-3.69,-2.0,-0.02,-0.02,-0.17,0.25,-70.75,103.19,1.87,1.31,0.19,1,1
1772399731.433831,9489708,0.16,0.14,0.18,-167.56,-70.44,252.12,-3.62,-2.5,-1.81,0.0,-0.01,-0.19,0.25,-70.81,103.25,1.12,0.75,-0.13,1,1
1772399731.474676,9489749,0.11,0.13,0.23,-167.56,-70.62,252.06,0.06,-4.75,-1.25,-0.03,-0.01,-0.17,0.19,-70.87,103.25,0.06,0.31,0.0,2,1
1772399731.515116,9489789,0.03,0.04,0.21,-167.62,-70.75,252.19,1.94,-4.56,-0.62,-0.02,-0.06,-0.13,0.25,-70.87,103.25,0.19,0.31,0.0,2,1
1772399731.555481,9489829,-0.05,0.03,0.18,-167.62,-70.94,252.31,2.37,-2.94,-0.44,-0.04,-0.07,-0.05,0.25,-70.94,103.25,0.19,0.0,-0.25,2,1
1772399731.595094,9489869,-0.03,-0.01,0.17,-167.69,-71.0,252.44,2.19,-1.56,-0.19,-0.02,-0.09,-0.05,0.31,-70.94,103.25,-0.13,0.37,-0.31,2,1
1772399731.635228,9489909,0.0,-0.05,0.11,-167.69,-71.0,252.56,0.88,0.25,-0.62,0.0,-0.08,0.0,0.31,-70.94,103.25,0.19,0.25,-0.06,1,3
1772399731.675648,9489950,0.03,-0.03,0.06,-167.75,-71.0,252.56,0.13,1.81,-0.5,-0.02,-0.1,-0.03,0.31,-70.94,103.25,0.44,0.37,0.25,2,3
1772399731.716091,9489990,0.13,-0.01,0.02,-167.81,-70.87,252.56,-0.62,1.87,-0.06,-0.03,-0.07,-0.1,0.37,-70.94,103.31,0.37,0.44,0.25,2,3
1772399731.756038,9490030,0.1,0.08,0.0,-167.81,-70.81,252.5,-0.88,1.69,0.5,-0.05,-0.07,-0.02,0.37,-70.94,103.31,1.0,0.69,-0.25,2,3
1772399731.79588,9490070,0.16,0.04,0.02,-167.87,-70.75,252.5,-0.06,2.0,0.44,-0.04,-0.06,-0.09,0.31,-71.0,103.31,1.06,0.13,-0.06,2,3
1772399731.83595,9490110,0.15,0.1,0.04,-167.87,-70.69,252.44,0.88,0.94,1.0,0.0,-0.09,0.0,0.25,-71.0,103.37,2.06,0.25,0.37,2,3
1772399731.876591,9490151,0.11,0.03,0.06,-167.87,-70.62,252.5,1.44,0.75,-0.19,-0.04,0.0,-0.14,0.13,-71.0,103.37,0.94,0.44,1.06,3,4
1772399731.917009,9490191,0.14,0.06,0.11,-167.94,-70.62,252.56,1.31,0.13,-0.31,-0.03,-0.05,-0.15,0.06,-71.0,103.44,1.5,0.0,-0.37,2,4
1772399731.957227,9490231,-0.01,0.02,0.1,-168.0,-70.62,252.69,2.56,0.25,-0.13,-0.04,-0.07,0.0,0.13,-71.0,103.44,-0.13,-0.37,-0.19,3,4
1772399731.997048,9490271,-0.01,-0.03,0.1,-168.12,-70.56,252.81,2.25,2.37,-0.56,-0.03,-0.04,-0.06,0.13,-71.0,103.44,-0.44,-0.13,-0.56,3,4
1772399732.036695,9490311,0.0,0.0,0.09,-168.31,-70.5,252.94,1.94,3.06,-0.5,-0.01,-0.09,0.0,0.19,-71.0,103.5,0.44,-0.06,-0.88,3,2
1772399732.077195,9490351,0.0,0.06,0.08,-168.5,-70.31,253.06,3.0,5.25,-0.13,0.0,-0.05,0.0,0.19,-71.0,103.56,1.62,-0.13,-0.31,4,2
1772399732.117585,9490392,0.02,-0.01,0.07,-168.75,-70.06,253.19,3.69,7.25,-0.37,-0.04,-0.11,0.0,0.19,-71.0,103.56,1.12,-1.12,0.56,4,2
1772399732.157547,9490432,0.26,-0.04,0.13,-169.06,-69.81,253.37,3.37,8.5,0.31,0.0,-0.07,0.0,0.06,-71.0,103.56,1.0,-1.37,1.25,4,2
1772399732.196757,9490471,-0.22,0.15,0.28,-169.19,-69.56,253.5,4.62,6.87,2.44,-0.02,-0.02,-0.1,0.13,-71.0,103.44,-3.56,0.06,1.31,4,2
1772399732.236962,9490511,-0.09,0.07,0.24,-169.25,-69.12,253.69,6.87,10.5,3.69,0.0,-0.03,-0.19,0.06,-71.0,103.37,2.06,-1.19,1.0,4,2
1772399732.278239,9490552,0.22,-0.08,0.11,-169.44,-68.69,253.87,5.19,12.75,0.75,-0.02,-0.04,-0.17,0.0,-71.0,103.44,1.69,-0.75,0.06,4,2
1772399732.318642,9490593,0.19,-0.11,0.04,-169.81,-68.31,254.0,1.12,9.31,-1.62,-0.03,-0.08,-0.21,0.0,-71.06,103.44,0.31,-0.06,-0.19,4,2
1772399732.358685,9490633,0.34,-0.16,0.0,-170.19,-67.94,254.12,-0.88,8.0,-1.94,0.0,-0.13,-0.14,0.0,-71.06,103.44,0.19,-0.44,0.19,5,3
1772399732.398643,9490673,0.07,-0.1,-0.01,-170.44,-67.62,254.06,-1.87,6.75,-1.19,-0.03,-0.07,-0.12,0.06,-71.06,103.44,0.25,-0.31,0.81,5,3
1772399732.438811,9490713,0.35,-0.05,-0.08,-170.5,-67.37,253.87,-3.69,5.06,-0.56,-0.03,-0.03,-0.06,0.0,-71.06,103.44,0.37,-0.69,1.0,5,4
1772399732.479265,9490753,0.21,0.04,-0.1,-170.44,-67.25,253.69,-3.62,2.31,-0.62,0.0,-0.01,-0.03,-0.13,-71.06,103.44,1.12,-0.25,0.69,5,4
1772399732.519394,9490794,0.17,0.14,-0.03,-170.31,-67.19,253.5,-1.56,0.62,0.0,-0.05,0.01,0.02,-0.13,-71.06,103.44,0.37,-0.44,0.25,5,3
1772399732.559443,9490834,0.11,0.17,0.0,-170.25,-67.12,253.44,1.62,-0.81,0.19,-0.05,0.01,-0.03,-0.19,-71.06,103.44,0.44,-0.06,0.0,5,3
1772399732.599376,9490873,0.12,0.06,0.02,-170.31,-67.19,253.56,3.44,-1.75,0.69,-0.02,-0.05,-0.06,-0.19,-71.06,103.44,-0.81,-0.69,-0.81,5,4
1772399732.639549,9490914,0.05,0.0,0.07,-170.31,-67.25,253.69,3.12,-2.62,0.75,0.01,-0.07,-0.05,0.0,-71.06,103.44,-2.5,-0.81,-0.94,5,4
1772399732.680377,9490954,0.0,-0.07,0.14,-170.37,-67.31,253.87,1.75,-0.94,0.13,-0.01,-0.06,-0.04,0.25,-71.0,103.37,-2.81,-0.94,-0.81,5,4
1772399732.720048,9490994,0.0,0.01,0.14,-170.44,-67.37,253.94,1.12,0.88,0.56,-0.14,-0.1,0.03,0.25,-70.94,103.44,0.37,-2.0,-0.5,5,4
1772399732.760343,9491035,-0.05,0.01,0.12,-170.44,-67.31,254.0,0.75,1.81,1.31,0.01,-0.03,-0.09,0.31,-70.87,103.37,-1.25,-1.0,0.06,3,4
1772399732.799364,9491074,0.06,0.04,0.14,-170.37,-67.19,253.94,0.75,3.31,1.56,-0.1,-0.03,-0.04,0.25,-70.81,103.44,0.0,-1.31,0.06,3,4
1772399732.840125,9491114,-0.05,0.06,0.16,-170.31,-67.06,253.94,1.19,4.12,1.69,-0.01,-0.01,-0.13,0.31,-70.75,103.44,-0.13,-2.19,0.19,3,3
1772399732.881087,9491155,-0.02,0.1,0.19,-170.25,-66.87,253.94,2.62,5.56,1.94,0.03,-0.03,-0.05,0.31,-70.62,103.44,-2.5,-2.0,0.13,3,3
1772399732.921225,9491195,-0.16,0.04,0.26,-170.19,-66.69,254.0,5.37,9.19,4.0,-0.11,-0.04,0.02,0.31,-70.5,103.44,1.31,-3.62,-0.19,4,4
1772399732.961378,9491235,0.06,-0.03,0.14,-170.12,-66.31,254.12,5.62,12.44,4.12,-0.05,-0.02,-0.06,0.37,-70.44,103.37,0.56,-2.25,-0.25,4,4
1772399733.000373,9491275,0.03,-0.03,0.15,-170.19,-65.81,254.25,4.94,12.88,2.87,0.01,-0.08,-0.15,0.44,-70.44,103.37,0.5,-2.19,-0.75,3,4
1772399733.040853,9491315,0.09,-0.02,0.04,-170.37,-65.31,254.37,4.44,13.19,2.12,0.15,-0.01,-0.19,0.56,-70.37,103.37,-2.87,-0.31,-0.75,3,4
1772399733.08185,9491356,0.15,-0.04,0.0,-170.56,-64.75,254.44,3.19,13.25,1.56,0.05,-0.05,-0.08,0.56,-70.25,103.44,-1.75,-1.12,-1.19,4,3
1772399733.122069,9491396,0.26,0.0,-0.06,-170.75,-64.31,254.5,2.12,11.38,1.06,-0.01,-0.06,-0.12,0.69,-70.12,103.5,0.31,-2.81,-0.88,4,3
1772399733.162132,9491436,0.27,0.03,-0.09,-170.87,-63.88,254.56,1.37,8.06,0.56,-0.16,-0.12,0.41,0.44,-69.87,103.75,15.69,-12.69,0.5,4,3
1772399733.201149,9491475,0.22,0.02,-0.07,-171.0,-63.56,254.62,1.44,6.25,0.06,0.14,-0.03,-0.12,0.56,-69.81,103.75,3.37,-3.75,-0.62,4,3
1772399733.241561,9491516,0.08,0.0,-0.11,-171.12,-63.31,254.69,1.25,6.0,-0.56,-0.14,-0.04,0.08,0.44,-69.56,103.87,1.0,-1.12,-0.25,4,3
1772399733.28271,9491557,0.18,0.01,-0.09,-171.31,-63.13,254.69,1.19,5.19,-1.62,-0.02,-0.06,-0.03,0.37,-69.5,103.87,-0.94,-1.06,-0.44,5,4
1772399733.323072,9491597,0.25,-0.05,-0.08,-171.5,-62.94,254.81,0.69,3.75,-1.31,-0.24,-0.06,0.03,0.25,-69.37,104.0,1.37,-2.62,-0.06,4,4
1772399733.363199,9491637,0.19,-0.01,-0.09,-171.62,-62.75,254.87,0.5,1.69,-0.62,0.0,-0.04,-0.01,0.31,-69.31,103.94,-0.94,-1.62,-0.37,4,4
1772399733.403384,9491677,0.22,-0.04,-0.07,-171.75,-62.69,254.87,0.62,0.13,-0.19,-0.01,-0.05,-0.06,0.25,-69.25,104.0,6.12,-5.37,0.56,4,4
1772399733.443677,9491718,0.18,-0.06,-0.06,-171.75,-62.69,254.94,0.56,-0.94,-0.06,-0.22,-0.06,0.03,0.13,-69.12,104.12,1.06,-1.19,0.06,4,4
1772399733.484064,9491758,0.17,-0.02,-0.06,-171.75,-62.75,254.94,-0.62,-2.94,0.31,-0.06,-0.05,-0.02,0.13,-69.12,104.12,0.5,-1.06,0.06,4,5
1772399733.524406,9491798,0.17,-0.06,-0.06,-171.69,-62.88,254.94,-0.81,-4.37,-0.13,-0.06,-0.06,-0.1,0.13,-69.06,104.12,0.88,-0.94,-0.06,4,5
1772399733.564163,9491838,0.19,-0.07,-0.01,-171.62,-63.06,254.87,-2.0,-6.06,0.06,0.01,-0.04,-0.06,0.13,-69.06,104.12,1.06,-0.88,0.0,4,5
1772399733.603157,9491877,0.21,-0.1,0.02,-171.44,-63.31,254.75,-3.06,-8.06,0.25,-0.01,-0.05,-0.02,0.06,-69.0,104.19,0.81,-1.5,0.19,5,5
1772399733.643567,9491918,0.16,-0.05,0.03,-171.25,-63.63,254.62,-3.69,-8.75,0.06,-0.01,-0.02,-0.02,0.06,-68.94,104.19,1.37,-0.44,0.19,4,4
1772399733.684548,9491959,0.08,-0.03,0.0,-171.0,-64.0,254.37,-4.31,-10.25,-0.44,-0.03,-0.03,-0.05,0.0,-68.94,104.25,0.81,-0.56,-0.06,4,4
1772399733.724573,9491999,0.1,-0.05,-0.03,-170.69,-64.37,254.19,-4.94,-11.38,-0.75,0.0,-0.03,0.0,0.0,-68.94,104.25,0.75,0.37,-0.25,3,4
1772399733.764838,9492039,0.17,-0.03,0.04,-170.44,-64.87,254.0,-5.87,-13.13,-2.37,0.0,-0.01,-0.02,0.0,-68.94,104.25,0.62,0.5,-0.31,5,4
1772399733.804836,9492079,-0.02,-0.01,0.04,-170.25,-65.37,253.75,-7.19,-13.25,-3.94,-0.03,-0.06,-0.04,0.0,-69.0,104.25,1.0,0.94,-0.5,4,4
1772399733.844934,9492119,-0.05,0.01,0.05,-170.19,-65.87,253.56,-7.62,-10.31,-4.62,0.01,-0.06,-0.08,0.0,-69.0,104.31,1.56,1.75,-0.06,4,4
1772399733.885272,9492159,-0.05,0.0,0.13,-170.19,-66.25,253.37,-7.31,-8.0,-4.62,0.0,-0.12,-0.07,-0.06,-69.12,104.37,2.06,2.5,0.13,5,4
1772399733.925646,9492200,-0.06,0.03,0.16,-170.12,-66.56,253.12,-6.62,-6.12,-2.69,-0.04,-0.07,-0.07,-0.13,-69.19,104.44,1.69,1.87,0.25,5,4
1772399733.965856,9492240,-0.16,0.12,0.21,-169.94,-66.81,252.87,-4.87,-3.62,-1.44,-0.03,-0.07,-0.06,-0.25,-69.25,104.44,2.12,0.94,0.88,4,4
1772399734.005591,9492280,-0.01,0.07,0.27,-169.81,-66.94,252.62,-2.06,-0.37,-0.31,-0.07,-0.07,-0.03,-0.31,-69.31,104.5,1.12,0.56,0.25,4,4
1772399734.0462,9492320,-0.09,0.08,0.23,-169.69,-67.0,252.56,-0.75,0.25,1.0,-0.01,-0.05,-0.13,-0.31,-69.31,104.5,1.69,0.81,0.13,4,5
1772399734.086208,9492361,0.0,0.05,0.21,-169.56,-67.0,252.44,0.94,3.19,1.19,-0.03,-0.04,-0.09,-0.37,-69.37,104.56,0.5,0.81,-0.31,5,5
1772399734.126257,9492401,-0.06,0.08,0.16,-169.5,-66.87,252.44,1.69,4.87,0.62,0.0,-0.06,-0.08,-0.37,-69.44,104.56,0.19,1.19,-0.25,5,5
1772399734.166416,9492441,0.08,0.07,0.1,-169.56,-66.69,252.5,3.5,6.25,1.06,-0.03,-0.03,-0.1,-0.37,-69.44,104.56,0.44,0.13,0.06,4,5
1772399734.206589,9492481,0.12,0.1,0.05,-169.69,-66.44,252.69,6.0,6.25,1.81,-0.05,-0.07,-0.04,-0.37,-69.44,104.56,-0.37,-0.13,0.06,4,5
1772399734.246661,9492521,0.06,0.0,0.07,-169.87,-66.12,253.0,8.19,7.81,2.62,-0.02,-0.03,-0.04,-0.31,-69.44,104.56,-0.06,-0.06,0.13,4,5
1772399734.28705,9492561,-0.16,0.01,0.07,-170.06,-65.81,253.31,7.75,6.56,3.0,-0.02,-0.06,0.06,-0.31,-69.44,104.56,0.06,-0.06,0.37,4,5
1772399734.327109,9492601,-0.02,-0.05,0.0,-170.25,-65.5,253.62,8.25,9.44,3.0,-0.02,-0.05,0.0,-0.37,-69.44,104.56,0.25,0.13,0.62,4,5
1772399734.367174,9492642,0.12,-0.08,0.01,-170.44,-65.06,253.94,7.44,9.94,2.5,0.0,-0.07,0.03,-0.37,-69.5,104.5,-5.62,4.06,0.88,4,5
1772399734.406839,9492681,0.1,-0.09,-0.03,-170.69,-64.69,254.19,4.87,9.5,1.19,-0.02,-0.02,-0.04,-0.37,-69.56,104.37,-0.06,0.62,2.12,3,5
1772399734.446985,9492721,-0.1,-0.05,0.02,-170.87,-64.31,254.37,3.5,12.06,1.06,-0.1,0.0,0.04,-0.56,-69.62,104.31,-2.69,3.37,1.31,3,4
1772399734.487664,9492762,0.18,0.0,0.06,-171.19,-63.69,254.5,3.44,15.25,0.25,0.0,-0.09,-0.06,-0.62,-69.69,104.19,1.69,1.44,1.0,3,4
1772399734.528183,9492802,0.19,-0.09,0.02,-171.44,-63.13,254.62,3.19,12.44,-0.31,0.06,-0.03,-0.23,-0.75,-69.75,104.19,-4.31,3.81,0.37,3,4
1772399734.568388,9492843,0.21,-0.08,0.05,-171.69,-62.75,254.75,1.87,9.13,0.62,-0.07,-0.08,-0.09,-0.69,-69.87,104.12,-1.69,0.94,0.31,3,4
1772399734.608272,9492882,0.15,-0.08,0.08,-171.81,-62.44,254.81,0.56,6.12,0.56,0.0,-0.06,-0.17,-0.56,-69.94,104.12,-0.62,-0.62,0.06,3,4
1772399734.648532,9492923,0.05,0.0,0.06,-171.87,-62.19,254.75,-0.19,4.37,1.12,-0.07,-0.03,-0.12,-0.56,-69.94,104.12,-0.06,-0.94,-0.13,3,4
1772399734.689018,9492963,0.12,0.05,0.06,-171.81,-62.06,254.69,1.56,4.25,1.44,-0.04,-0.04,-0.11,-0.5,-69.94,104.12,-0.25,-0.94,-0.94,3,5
1772399734.729093,9493003,0.11,0.04,0.06,-171.81,-61.88,254.75,2.5,3.37,2.37,0.0,-0.05,-0.16,-0.37,-69.87,104.19,-0.06,-0.56,-1.12,3,5
1772399734.769266,9493043,0.18,0.03,0.04,-171.75,-61.75,254.81,3.5,2.44,3.19,-0.03,-0.08,-0.06,-0.25,-69.87,104.25,-0.13,-0.31,-0.75,2,5
1772399734.809138,9493083,0.15,0.02,0.05,-171.62,-61.63,254.87,3.37,1.06,3.25,-0.02,-0.05,-0.08,-0.13,-69.87,104.25,-0.37,-0.19,-0.5,3,5
1772399734.849468,9493124,0.15,0.06,0.02,-171.56,-61.56,254.94,3.19,-0.25,2.44,-0.06,-0.05,-0.02,-0.13,-69.87,104.25,-0.37,-0.31,-0.5,3,5
1772399734.889659,9493164,0.03,0.01,0.04,-171.56,-61.56,255.06,2.62,0.25,0.81,0.03,-0.01,-0.01,-0.13,-69.87,104.25,1.62,-1.56,-0.06,3,6
1772399734.929994,9493204,0.03,0.0,0.01,-171.62,-61.56,255.25,2.62,0.88,-0.13,0.15,-0.07,-0.11,-0.19,-69.81,104.31,7.25,-7.31,0.13,3,5
1772399734.970228,9493244,0.04,-0.01,0.01,-171.75,-61.5,255.37,2.25,2.0,-0.62,0.01,-0.06,-0.05,-0.31,-69.69,104.44,0.5,-0.44,-0.13,3,5
1772399735.01007,9493284,0.12,-0.03,0.05,-171.94,-61.44,255.56,2.12,2.44,-0.62,-0.01,-0.02,-0.04,-0.31,-69.69,104.44,1.0,-0.13,0.44,3,5
1772399735.050291,9493324,0.14,-0.08,0.0,-172.06,-61.38,255.69,1.75,1.81,-0.62,-0.04,-0.02,-0.1,-0.37,-69.69,104.44,1.12,-0.13,0.31,3,5
1772399735.090742,9493365,0.12,-0.05,-0.02,-172.19,-61.31,255.81,1.0,1.25,-1.0,-0.02,0.0,-0.09,-0.37,-69.75,104.5,0.81,-0.06,0.44,3,5
1772399735.131202,9493405,0.08,-0.11,0.01,-172.31,-61.25,255.94,0.62,-0.13,-1.25,-0.01,-0.02,-0.11,-0.44,-69.75,104.5,0.37,-0.31,0.06,3,5
1772399735.171211,9493445,0.12,-0.09,0.0,-172.44,-61.25,256.0,0.25,-0.62,-0.62,-0.01,-0.04,-0.06,-0.44,-69.75,104.5,0.44,0.0,-0.06,3,5
1772399735.211502,9493486,0.09,-0.15,0.01,-172.44,-61.31,256.0,-0.13,-1.12,0.06,-0.04,-0.03,0.0,-0.44,-69.75,104.5,-0.06,-0.19,-0.25,3,5
1772399735.251912,9493526,0.04,-0.08,0.02,-172.37,-61.38,255.94,-1.19,-1.19,0.62,-0.03,-0.02,-0.07,-0.44,-69.75,104.5,0.0,-0.31,-0.25,3,5
1772399735.291974,9493566,0.07,-0.08,0.05,-172.25,-61.44,255.81,-1.44,-1.19,0.81,-0.02,-0.04,-0.01,-0.37,-69.75,104.5,-0.31,-0.62,-0.62,2,5
1772399735.331952,9493606,0.1,0.01,0.05,-172.12,-61.44,255.69,-1.81,-1.12,1.06,-0.05,-0.03,0.03,-0.37,-69.75,104.5,0.06,-0.37,-0.31,2,5
1772399735.372189,9493646,0.1,0.0,0.01,-172.0,-61.5,255.56,-1.69,-1.06,0.44,-0.03,-0.06,-0.04,-0.37,-69.75,104.5,0.13,-0.31,-0.25,2,5
1772399735.411996,9493686,0.11,0.0,0.03,-171.87,-61.5,255.44,-1.62,-0.62,1.06,-0.08,-0.01,-0.07,-0.37,-69.75,104.5,0.62,-0.37,0.19,2,4
1772399735.452237,9493726,0.16,0.02,0.0,-171.81,-61.56,255.37,-0.94,-2.19,0.19,-0.03,-0.06,-0.15,-0.37,-69.75,104.56,0.0,-0.13,-0.25,2,4
1772399735.492882,9493767,0.16,-0.01,0.07,-171.75,-61.69,255.31,-1.44,-3.62,0.37,0.0,-0.05,-0.05,-0.37,-69.75,104.56,-0.19,-1.0,-0.25,2,4
1772399735.533035,9493807,0.08,-0.01,0.07,-171.62,-61.81,255.19,-1.25,-4.19,0.5,0.0,-0.06,-0.07,-0.37,-69.69,104.56,-0.13,-0.81,-0.25,2,4
1772399735.573028,9493847,0.06,0.0,0.03,-171.44,-62.0,255.12,-1.69,-4.25,0.94,-0.02,-0.06,-0.02,-0.31,-69.69,104.56,0.25,-0.44,-0.19,2,4
1772399735.612683,9493887,0.0,0.0,0.06,-171.31,-62.13,255.0,-1.5,-3.69,0.94,-0.02,-0.07,0.0,-0.31,-69.69,104.56,0.19,-0.56,-0.19,2,4
1772399735.652982,9493927,-0.02,0.03,0.06,-171.12,-62.25,254.87,-1.87,-2.25,0.69,-0.03,-0.06,0.0,-0.31,-69.69,104.56,0.37,-0.5,0.0,1,3
1772399735.693522,9493968,0.02,0.0,0.05,-171.06,-62.31,254.81,-1.44,-0.94,0.25,-0.01,-0.04,-0.01,-0.31,-69.69,104.56,0.69,-0.06,-0.13,1,3
1772399735.733633,9494008,0.11,0.03,0.05,-171.0,-62.31,254.69,-1.0,-0.81,0.44,-0.01,-0.05,-0.06,-0.37,-69.69,104.56,0.81,0.0,-0.13,1,3
1772399735.773762,9494048,0.12,0.07,0.03,-170.94,-62.38,254.62,-1.44,-1.5,0.31,-0.01,-0.04,-0.07,-0.37,-69.69,104.56,0.25,-0.25,0.0,1,3
1772399735.813848,9494088,0.05,0.05,0.09,-170.87,-62.44,254.56,-0.44,-1.56,-0.19,-0.03,-0.06,-0.04,-0.37,-69.69,104.56,0.0,-0.44,-0.19,1,3
1772399735.854157,9494128,0.05,0.03,0.06,-170.81,-62.5,254.56,0.44,-1.56,-0.19,-0.02,-0.04,-0.03,-0.37,-69.69,104.56,-0.13,-0.31,-0.06,1,2
1772399735.894458,9494169,0.01,0.0,0.07,-170.81,-62.56,254.56,0.5,-1.56,0.06,-0.03,-0.07,-0.05,-0.37,-69.69,104.56,-0.25,-0.19,-0.19,1,2
1772399735.934669,9494209,0.05,-0.01,0.08,-170.81,-62.63,254.62,0.0,-0.62,-0.06,-0.01,-0.06,-0.03,-0.37,-69.69,104.56,-0.19,0.06,-0.19,1,2
1772399735.974835,9494249,0.04,-0.02,0.03,-170.81,-62.63,254.62,-0.5,0.25,-0.25,-0.03,-0.09,-0.05,-0.37,-69.69,104.56,-0.13,0.25,-0.06,1,3
1772399736.014766,9494289,0.03,0.03,0.07,-170.81,-62.63,254.56,-0.81,1.31,-0.19,-0.02,-0.06,-0.04,-0.37,-69.69,104.56,0.06,0.19,0.0,1,3
1772399736.054768,9494329,0.07,-0.03,0.04,-170.81,-62.56,254.5,-0.88,1.75,-0.25,-0.01,-0.06,0.0,-0.37,-69.69,104.56,0.13,0.31,0.0,1,3
1772399736.095146,9494369,0.25,0.05,0.01,-170.75,-62.44,254.44,-0.62,1.94,0.0,-0.03,-0.07,-0.07,-0.37,-69.69,104.56,0.56,0.62,-0.06,1,3
1772399736.135658,9494410,0.21,-0.09,-0.04,-170.75,-62.44,254.44,-1.25,-1.0,-0.25,-0.05,-0.08,-0.07,-0.37,-69.69,104.56,-0.31,0.56,0.0,1,3
1772399736.175454,9494450,0.04,0.03,-0.05,-170.69,-62.5,254.31,-1.87,-2.5,0.0,-0.04,-0.06,-0.05,-0.37,-69.75,104.62,0.69,0.75,0.25,1,3
1772399736.215625,9494490,0.15,-0.04,0.03,-170.62,-62.56,254.25,-1.87,-3.0,-1.0,-0.01,-0.09,-0.09,-0.37,-69.75,104.62,0.13,0.25,-0.06,1,3
1772399736.255685,9494530,0.08,-0.01,0.02,-170.56,-62.69,254.19,-2.25,-3.37,-0.13,0.0,-0.07,-0.04,-0.37,-69.75,104.62,0.31,0.13,0.0,1,3
1772399736.296933,9494570,0.03,0.04,0.07,-170.5,-62.81,254.06,-0.75,-1.81,0.69,-0.02,-0.07,0.0,-0.44,-69.75,104.62,0.88,-0.06,0.06,1,4
1772399736.33617,9494610,0.06,-0.03,0.04,-170.37,-62.88,254.06,-0.19,-2.06,0.75,-0.07,-0.06,-0.05,-0.44,-69.75,104.62,0.88,0.5,0.19,1,3
1772399736.376352,9494651,0.02,0.0,0.0,-170.31,-62.94,254.0,-0.94,-2.69,0.25,-0.02,-0.07,-0.06,-0.5,-69.75,104.62,0.75,0.19,-0.06,1,2
1772399736.416263,9494690,0.02,0.02,0.05,-170.19,-63.06,253.94,-1.0,-2.19,-0.37,0.0,-0.04,-0.02,-0.5,-69.75,104.69,0.31,0.0,0.25,1,2
1772399736.456733,9494731,0.06,-0.02,0.08,-170.19,-63.13,253.94,0.0,-0.44,-0.37,-0.04,-0.08,-0.06,-0.5,-69.75,104.69,0.81,0.31,0.0,1,1
1772399736.497273,9494771,0.1,-0.03,0.09,-170.19,-63.13,253.94,-0.25,-0.62,0.31,-0.03,-0.08,-0.13,-0.5,-69.75,104.69,0.88,0.31,0.06,1,1
1772399736.537144,9494811,0.07,0.0,0.06,-170.19,-63.13,253.94,-0.31,-0.88,0.19,-0.02,-0.08,-0.08,-0.56,-69.75,104.69,0.44,-0.19,0.25,1,1
1772399736.577287,9494851,0.04,0.0,0.05,-170.19,-63.13,253.94,-0.13,-0.56,0.19,-0.03,-0.08,-0.06,-0.56,-69.75,104.69,0.25,0.0,0.06,1,1
1772399736.617782,9494892,0.03,-0.02,0.08,-170.19,-63.13,253.94,-0.44,-0.44,-0.44,-0.02,-0.05,-0.08,-0.56,-69.75,104.69,0.06,0.06,-0.13,2,1
1772399736.658072,9494932,0.17,-0.06,0.0,-170.12,-63.13,253.94,-0.62,-0.62,-0.13,-0.04,-0.06,-0.1,-0.56,-69.75,104.69,0.31,0.31,-0.31,2,1
1772399736.698274,9494972,0.3,-0.07,0.03,-170.12,-63.19,253.87,-0.81,-0.06,0.69,-0.02,-0.11,-0.02,-0.56,-69.75,104.69,0.25,0.19,-0.31,2,1
1772399736.73813,9495012,0.03,0.01,0.06,-170.0,-63.19,253.81,-0.56,-0.06,1.06,-0.02,-0.11,-0.08,-0.56,-69.75,104.69,0.62,0.0,-0.25,2,3
1772399736.778218,9495052,0.09,-0.06,0.02,-169.94,-63.19,253.75,-0.5,0.19,0.69,-0.01,-0.11,-0.06,-0.56,-69.75,104.75,0.56,0.06,-0.31,2,3
1772399736.818202,9495092,0.12,0.02,0.01,-169.87,-63.19,253.69,-1.69,-0.88,0.81,-0.02,-0.13,-0.12,-0.56,-69.75,104.75,0.56,0.13,-0.25,2,3
1772399736.8584,9495133,0.16,0.03,0.04,-169.75,-63.19,253.56,-1.44,-1.62,0.19,-0.04,-0.12,-0.08,-0.56,-69.75,104.75,0.88,0.37,-0.06,2,3
1772399736.898567,9495173,0.01,0.05,0.05,-169.69,-63.25,253.5,-1.0,-2.31,0.5,-0.02,-0.07,-0.05,-0.56,-69.75,104.75,0.56,0.06,0.06,2,3
1772399736.93894,9495213,-0.04,0.1,0.09,-169.62,-63.38,253.5,0.25,-1.19,0.25,-0.06,-0.04,-0.06,-0.62,-69.75,104.75,0.81,0.13,0.25,2,3
1772399736.979248,9495253,0.08,-0.05,0.11,-169.69,-63.38,253.56,1.62,0.0,-0.81,-0.03,-0.09,-0.07,-0.62,-69.75,104.75,0.75,0.06,-0.25,2,3
1772399737.019233,9495293,0.04,-0.01,0.09,-169.75,-63.38,253.69,0.94,0.0,0.06,-0.02,-0.12,-0.1,-0.69,-69.75,104.81,0.88,0.06,-0.13,3,3
1772399737.059568,9495334,0.02,-0.08,0.1,-169.75,-63.38,253.69,0.19,0.75,0.06,-0.03,-0.12,-0.11,-0.69,-69.75,104.81,0.88,-0.19,0.13,3,3
1772399737.099623,9495374,0.15,0.0,0.04,-169.75,-63.38,253.69,-0.88,0.94,0.44,-0.04,-0.08,-0.08,-0.69,-69.75,104.81,0.62,0.0,0.06,3,3
1772399737.140048,9495414,0.16,-0.02,0.04,-169.75,-63.31,253.62,-0.88,0.13,-0.5,-0.06,-0.05,-0.06,-0.75,-69.75,104.81,0.62,-0.37,0.19,3,1
1772399737.180434,9495454,0.3,0.02,-0.02,-169.69,-63.31,253.56,-0.88,-0.5,-0.31,-0.03,-0.06,-0.15,-0.75,-69.75,104.81,0.19,-0.37,-0.06,3,0
1772399737.220224,9495494,-0.08,0.05,0.07,-169.69,-63.38,253.56,0.19,-1.94,0.06,-0.01,-0.1,-0.16,-0.75,-69.75,104.81,0.81,0.25,-0.19,3,0
1772399737.260751,9495535,0.13,-0.01,0.06,-169.62,-63.44,253.56,0.81,-0.81,0.62,-0.02,-0.09,-0.1,-0.75,-69.75,104.87,0.56,-0.13,-0.13,3,1
1772399737.300716,9495575,0.03,0.0,0.09,-169.62,-63.5,253.56,-0.13,-1.5,0.31,-0.03,-0.09,-0.06,-0.75,-69.75,104.87,0.37,-0.13,-0.06,3,1
1772399737.340866,9495615,-0.01,0.0,0.06,-169.62,-63.5,253.56,-0.31,-0.37,-0.31,-0.04,-0.08,-0.06,-0.75,-69.75,104.87,0.31,-0.06,0.06,3,1
1772399737.380861,9495655,0.02,0.03,0.08,-169.62,-63.5,253.56,0.06,0.75,0.13,-0.02,-0.09,-0.04,-0.75,-69.75,104.87,0.19,-0.13,0.0,2,1
1772399737.421088,9495695,0.11,-0.05,0.04,-169.62,-63.44,253.56,0.25,1.12,-0.06,-0.05,-0.06,-0.09,-0.75,-69.75,104.87,0.06,0.13,-0.13,2,1
1772399737.461287,9495736,0.08,-0.03,0.04,-169.62,-63.44,253.56,0.0,0.5,0.0,-0.05,-0.1,-0.08,-0.75,-69.75,104.87,0.19,0.25,-0.13,3,1
1772399737.501546,9495776,0.09,-0.04,0.02,-169.62,-63.44,253.56,-0.13,0.37,0.44,-0.03,-0.12,-0.09,-0.75,-69.75,104.87,-0.19,0.31,-0.13,3,2
1772399737.541572,9495816,0.14,-0.02,0.03,-169.62,-63.44,253.56,-0.5,0.44,0.69,0.0,-0.14,-0.11,-0.75,-69.75,104.87,-0.25,0.13,-0.19,4,2
1772399737.581636,9495856,0.13,0.0,0.03,-169.56,-63.44,253.5,-1.56,0.44,0.62,0.0,-0.13,-0.08,-0.75,-69.75,104.87,-0.06,0.19,-0.25,4,2
1772399737.621848,9495896,0.11,0.03,0.05,-169.44,-63.44,253.37,-2.19,0.0,0.44,-0.05,-0.14,-0.1,-0.75,-69.75,104.87,-0.06,0.13,0.0,4,3
1772399737.662418,9495936,0.11,0.02,0.03,-169.37,-63.44,253.25,-1.87,-0.06,-0.19,-0.05,-0.11,-0.08,-0.75,-69.75,104.81,-1.31,-0.31,0.19,3,2
1772399737.702531,9495977,0.02,0.06,0.07,-169.31,-63.44,253.12,-1.06,-0.44,-0.31,-0.05,-0.06,-0.07,-0.69,-69.75,104.81,-0.5,-0.13,0.75,3,2
1772399737.742545,9496017,0.06,0.0,0.07,-169.31,-63.44,253.12,-0.19,-0.75,-0.69,-0.04,-0.13,-0.14,-0.69,-69.75,104.81,0.0,-0.13,0.19,3,3
1772399737.782559,9496057,0.01,0.03,0.14,-169.31,-63.5,253.12,-0.25,0.0,0.31,-0.02,-0.1,-0.01,-0.69,-69.75,104.81,0.62,-0.75,0.19,4,3
1772399737.823171,9496097,0.15,-0.03,0.08,-169.25,-63.5,253.06,-0.25,-0.5,0.75,-0.02,-0.09,-0.1,-0.75,-69.75,104.81,0.94,-0.37,0.56,4,3
1772399737.863236,9496137,0.1,0.02,0.04,-169.25,-63.5,253.06,-0.69,-0.37,0.62,-0.05,-0.07,-0.13,-0.75,-69.75,104.87,0.94,-0.13,0.25,4,3
1772399737.903396,9496177,0.02,0.0,0.09,-169.19,-63.5,253.06,0.19,-0.13,-0.13,-0.05,-0.09,-0.08,-0.81,-69.75,104.87,0.75,-0.06,-0.06,3,2
1772399737.943391,9496217,0.05,0.0,0.07,-169.19,-63.5,253.06,0.06,0.25,-0.19,-0.02,-0.04,-0.1,-0.81,-69.75,104.87,0.56,-0.13,0.13,3,1
1772399737.983476,9496258,0.07,-0.04,0.05,-169.25,-63.5,253.06,0.75,0.94,-0.62,-0.02,-0.07,-0.13,-0.81,-69.75,104.87,0.19,-0.19,-0.19,2,2
1772399738.023651,9496298,0.14,-0.02,0.04,-169.25,-63.44,253.12,-0.06,0.94,-0.19,-0.01,-0.08,-0.14,-0.81,-69.75,104.87,0.13,-0.31,0.0,3,1
1772399738.064574,9496338,0.12,-0.01,0.06,-169.31,-63.44,253.12,-0.5,-0.13,-0.31,-0.05,-0.08,-0.07,-0.81,-69.75,104.87,-0.44,-0.44,0.13,3,1
1772399738.104485,9496378,0.12,0.0,0.02,-169.25,-63.44,253.06,-0.62,-1.0,-0.5,-0.04,-0.08,-0.09,-0.81,-69.75,104.87,-1.06,-0.31,-0.06,3,2
1772399738.144589,9496418,0.1,-0.02,0.0,-169.25,-63.5,253.06,0.06,-1.56,-0.13,-0.05,-0.13,-0.07,-0.75,-69.75,104.81,-1.25,-0.75,-0.19,3,1
1772399738.184552,9496458,0.0,-0.04,-0.01,-169.25,-63.56,253.06,0.06,-0.75,0.94,-0.05,-0.13,-0.05,-0.69,-69.75,104.81,-1.06,-0.5,-0.19,3,1
1772399738.224704,9496499,0.12,-0.05,0.05,-169.12,-63.56,253.06,-1.06,0.69,1.12,-0.05,-0.12,-0.12,-0.69,-69.75,104.75,0.62,-0.44,-0.06,3,1
1772399738.264953,9496539,0.14,0.0,0.09,-169.0,-63.5,252.87,-2.56,-0.94,0.25,-0.03,-0.06,-0.18,-0.69,-69.69,104.81,1.12,-0.94,0.19,3,2
1772399738.30515,9496579,0.12,0.0,0.09,-168.87,-63.56,252.75,-1.81,-2.0,-0.19,-0.02,-0.09,-0.11,-0.75,-69.69,104.81,0.69,-1.31,0.19,4,2
1772399738.345158,9496619,0.1,0.01,0.08,-168.81,-63.69,252.69,-0.62,-3.0,0.13,-0.02,-0.07,-0.07,-0.75,-69.62,104.87,0.88,-0.94,0.0,4,2
1772399738.385502,9496659,0.13,0.0,0.03,-168.75,-63.81,252.69,-0.06,-4.31,0.31,-0.02,-0.07,-0.04,-0.75,-69.62,104.87,0.62,-0.69,-0.25,4,2
1772399738.425626,9496699,0.18,-0.04,0.04,-168.69,-63.94,252.75,-0.81,-5.37,-0.81,-0.02,-0.04,-0.06,-0.75,-69.62,104.94,0.25,-0.88,0.0,4,2
1772399738.466094,9496740,-0.63,0.04,0.09,-168.62,-64.19,252.75,-2.37,-8.69,-1.81,-0.11,-0.05,-0.05,-0.75,-69.62,104.94,1.37,-0.31,0.13,4,2
1772399738.5061,9496780,0.02,-0.01,0.07,-168.62,-64.5,252.75,-0.5,-3.62,-2.19,-0.03,-0.1,-0.03,-0.75,-69.62,104.94,0.5,-0.31,-0.19,4,2
1772399738.546327,9496820,0.07,-0.01,0.1,-168.75,-64.69,252.87,-0.13,-3.56,-1.44,0.0,-0.1,-0.08,-0.75,-69.62,105.0,0.81,-0.44,-0.44,4,2
1772399738.586289,9496860,0.02,0.0,0.06,-168.75,-64.75,252.87,-0.62,-2.37,-0.94,-0.02,-0.1,-0.07,-0.75,-69.62,105.0,0.44,0.0,-0.31,4,2
1772399738.626273,9496900,0.13,0.0,0.09,-168.75,-64.87,252.94,-0.5,-1.31,-0.06,-0.04,-0.14,-0.09,-0.69,-69.62,105.0,0.56,0.0,0.0,3,2
1772399738.666949,9496941,0.15,0.0,0.06,-168.69,-64.94,252.94,-0.25,-3.06,-0.13,-0.04,-0.1,-0.1,-0.62,-69.62,105.06,0.06,-0.19,-0.25,3,1
1772399738.706868,9496981,0.0,0.01,0.07,-168.62,-65.06,252.94,-0.88,-3.44,-0.06,-0.03,-0.09,-0.07,-0.62,-69.62,105.06,0.13,-0.19,-0.13,2,1
1772399738.746998,9497021,0.08,0.01,0.04,-168.56,-65.19,252.87,-0.44,-1.75,0.06,-0.04,-0.13,-0.05,-0.56,-69.62,105.06,1.0,0.06,-0.56,2,1
1772399738.787152,9497061,0.12,0.03,0.08,-168.5,-65.25,252.87,-0.19,-2.06,0.75,-0.02,-0.1,-0.18,-0.56,-69.69,105.06,1.06,-0.25,-0.31,2,1
1772399738.827285,9497101,0.05,0.05,0.07,-168.37,-65.31,252.87,0.62,-2.56,0.69,-0.02,-0.1,-0.05,-0.56,-69.69,105.12,0.19,-0.37,-0.44,2,1
1772399738.867377,9497142,-0.11,0.11,0.11,-168.37,-65.37,252.94,2.19,-0.5,0.37,0.0,-0.09,0.0,-0.5,-69.69,105.12,0.31,-0.75,-0.37,2,1
1772399738.907546,9497182,-0.04,0.12,0.1,-168.56,-65.31,253.19,4.94,2.37,-0.06,-0.01,-0.1,0.0,-0.5,-69.69,105.12,0.94,0.06,-0.13,2,0
1772399738.947669,9497222,-0.04,0.08,0.08,-168.81,-65.12,253.56,8.13,5.44,1.81,-0.02,-0.07,-0.09,-0.56,-69.69,105.19,1.31,1.06,0.25,2,0
1772399738.987053,9497261,0.09,0.02,0.07,-169.06,-64.87,254.0,10.31,6.5,3.37,-0.04,-0.09,-0.1,-0.56,-69.75,105.19,1.19,0.94,-0.37,2,1
1772399739.027652,9497302,0.11,-0.11,0.13,-169.25,-64.69,254.31,10.13,5.81,3.06,-0.02,-0.12,-0.09,-0.56,-69.75,105.25,0.81,0.62,-0.13,3,1
1772399739.068022,9497342,0.03,-0.12,0.08,-169.44,-64.44,254.75,7.06,4.12,1.69,-0.03,-0.09,-0.07,-0.56,-69.81,105.25,0.0,0.69,0.0,3,1
1772399739.108291,9497383,0.1,-0.1,0.05,-169.62,-64.25,255.0,4.19,5.31,0.94,-0.07,-0.06,0.0,-0.5,-69.81,105.31,0.44,0.37,0.06,3,1
1772399739.148689,9497423,0.16,-0.12,0.0,-169.87,-64.06,255.25,1.75,3.0,-0.62,-0.03,-0.07,-0.08,-0.56,-69.81,105.31,0.56,0.06,0.0,3,1
1772399739.1879,9497462,0.12,-0.02,0.01,-170.0,-63.94,255.25,-0.31,2.25,-0.94,-0.04,-0.09,-0.1,-0.56,-69.87,105.31,1.81,0.44,0.06,3,1
1772399739.228981,9497503,0.17,-0.02,0.05,-170.06,-63.94,255.25,0.19,1.19,-0.56,-0.04,-0.1,-0.09,-0.56,-69.87,105.37,0.5,-0.06,-0.25,3,1
1772399739.269564,9497544,0.12,-0.02,0.02,-170.06,-63.88,255.31,0.06,-0.31,0.37,-0.02,-0.1,-0.06,-0.56,-69.87,105.37,0.37,-0.25,-0.31,3,1
1772399739.309607,9497584,0.12,-0.02,0.0,-170.06,-63.94,255.25,-0.62,-0.69,0.37,-0.02,-0.07,-0.01,-0.5,-69.87,105.37,0.56,-0.06,0.0,3,1
1772399739.349798,9497624,0.23,-0.03,-0.03,-170.0,-63.94,255.19,-1.62,-0.88,0.19,-0.03,-0.09,-0.1,-0.5,-69.87,105.37,0.69,0.13,-0.13,3,2
1772399739.390155,9497664,0.2,-0.05,-0.08,-169.87,-64.06,255.06,-2.81,-3.75,-0.37,-0.05,-0.12,-0.07,-0.56,-69.87,105.44,0.25,-0.37,-0.37,3,1
1772399739.430172,9497704,0.3,-0.08,-0.01,-169.62,-64.25,254.87,-4.5,-5.75,-0.69,-0.03,-0.04,-0.05,-0.56,-69.87,105.44,0.5,-0.13,0.06,2,1
1772399739.470589,9497744,0.02,-0.01,0.01,-169.5,-64.44,254.69,-6.81,-9.13,-2.44,-0.01,-0.1,-0.07,-0.56,-69.87,105.44,0.69,-0.56,-0.19,2,1
1772399739.510491,9497785,0.09,0.0,0.06,-169.31,-64.87,254.31,-7.56,-7.06,-3.25,-0.04,-0.1,-0.03,-0.56,-69.87,105.44,0.62,-0.13,-0.13,2,1
1772399739.550401,9497825,0.1,0.02,0.07,-169.19,-65.19,254.06,-7.44,-7.44,-4.0,0.0,-0.06,-0.11,-0.62,-69.87,105.44,0.69,0.06,0.0,2,1
1772399739.590725,9497865,-0.02,0.0,0.06,-169.19,-65.5,253.81,-7.87,-6.62,-6.12,-0.04,-0.05,-0.13,-0.62,-69.87,105.44,0.5,0.44,-0.13,2,1
1772399739.630663,9497905,-0.07,0.0,0.09,-169.44,-65.62,253.69,-9.31,-1.25,-11.25,0.0,-0.06,0.0,-0.56,-69.87,105.44,-0.37,-0.25,-0.44,2,1
1772399739.671058,9497945,0.12,-0.01,0.15,-170.12,-65.75,253.62,-11.44,-0.13,-13.75,-0.06,-0.14,0.01,-0.56,-69.87,105.44,0.62,0.5,-0.5,2,1
1772399739.711149,9497985,0.01,0.06,0.15,-170.87,-65.87,253.37,-11.25,-1.06,-11.31,0.0,-0.19,-0.14,-0.62,-69.94,105.5,0.88,0.5,-0.13,3,2
1772399739.751422,9498025,0.13,0.12,0.15,-171.25,-66.0,253.12,-9.5,-1.44,-7.31,-0.03,-0.15,-0.11,-0.62,-69.94,105.5,1.69,-0.5,0.5,2,3
1772399739.79095,9498065,0.08,0.15,0.12,-171.37,-66.12,252.87,-6.44,-3.0,-3.87,-0.03,-0.13,-0.06,-0.75,-69.94,105.56,1.62,-0.25,0.56,3,3
1772399739.83013,9498104,-0.01,0.18,0.13,-171.37,-66.19,252.75,-2.44,-2.06,-1.75,-0.04,-0.11,-0.04,-0.81,-69.94,105.62,1.75,0.0,0.44,2,3
1772399739.871153,9498145,0.07,0.11,0.09,-171.31,-66.31,252.69,1.12,-2.0,0.25,-0.04,-0.07,-0.08,-0.88,-69.94,105.62,0.37,0.0,-0.13,2,3
1772399739.91163,9498186,0.02,0.06,0.05,-171.25,-66.37,252.75,2.81,-1.81,0.81,-0.03,-0.08,-0.12,-0.88,-69.94,105.62,0.13,0.19,-0.25,2,3
1772399739.95219,9498226,0.06,-0.15,0.09,-171.37,-66.44,253.0,3.25,-1.56,0.31,-0.02,-0.11,-0.12,-0.81,-69.94,105.62,-0.19,0.44,-0.75,3,3
1772399739.992393,9498266,0.12,-0.11,0.05,-171.37,-66.5,253.06,1.06,-2.19,1.31,-0.04,-0.13,-0.07,-0.81,-69.94,105.62,0.25,0.06,-0.31,2,3
1772399740.03195,9498306,0.0,-0.03,0.05,-171.25,-66.56,253.06,0.13,-1.56,1.75,0.0,-0.09,-0.12,-0.81,-69.94,105.69,0.81,0.06,0.06,2,3
1772399740.072637,9498347,0.08,0.03,0.07,-171.12,-66.56,253.0,-0.44,-0.5,1.44,-0.01,-0.07,-0.01,-0.88,-69.94,105.69,0.62,-0.25,0.13,2,3
1772399740.112747,9498387,0.07,0.02,0.04,-171.0,-66.62,253.0,-0.5,-1.75,0.44,-0.03,-0.09,-0.01,-0.88,-69.94,105.69,0.69,0.06,-0.19,2,1
1772399740.153073,9498427,-0.06,0.11,0.08,-171.0,-66.69,253.0,0.62,-0.31,-0.06,-0.06,-0.11,-0.04,-0.88,-69.94,105.69,0.0,-0.31,-0.13,2,0
1772399740.193138,9498467,0.14,-0.07,0.01,-171.06,-66.69,253.06,1.62,0.37,-0.37,-0.06,-0.12,-0.07,-0.88,-69.94,105.69,0.0,-0.06,-0.62,1,0
1772399740.233183,9498507,0.08,-0.04,0.03,-171.06,-66.69,253.12,0.37,-0.19,0.31,0.0,-0.12,-0.14,-0.81,-69.94,105.75,0.44,0.69,-0.75,1,1
1772399740.273716,9498548,0.23,-0.01,0.04,-171.06,-66.69,253.12,0.0,-0.62,0.31,-0.06,-0.12,-0.12,-0.69,-69.94,105.75,1.37,-0.13,-0.94,1,1
1772399740.313807,9498588,0.08,0.01,0.06,-171.0,-66.75,253.12,-0.19,-2.44,0.62,-0.1,-0.09,-0.02,-0.69,-69.94,105.87,2.81,-0.19,-0.88,1,1
1772399740.353802,9498628,0.08,-0.01,0.03,-171.0,-66.81,253.12,0.25,-2.0,0.19,0.04,-0.11,-0.15,-0.75,-69.94,105.94,2.69,1.06,-0.56,1,1
1772399740.393403,9498667,-0.07,-0.03,-0.03,-170.94,-66.94,253.12,0.19,-2.81,-0.25,0.02,-0.15,-0.14,-0.88,-69.94,106.06,1.87,-0.69,0.31,2,3
1772399740.433069,9498707,0.02,0.01,0.06,-170.94,-66.94,253.12,-0.5,-1.37,0.25,-0.04,-0.13,-0.1,-0.94,-69.87,106.06,0.88,-1.19,0.37,2,3
1772399740.47388,9498748,0.03,0.0,0.04,-170.87,-67.0,253.12,-1.0,-1.62,0.69,0.14,-0.11,-0.1,-0.81,-70.0,106.0,-8.94,6.31,0.06,2,4
1772399740.514317,9498789,0.05,0.04,0.04,-170.75,-67.06,253.0,-1.56,-1.5,0.25,0.0,-0.12,-0.04,-0.81,-70.06,105.94,0.44,-0.13,0.69,2,4
1772399740.554818,9498829,0.08,0.05,0.05,-170.69,-67.12,252.94,-1.56,-1.44,-0.62,-0.03,-0.07,-0.05,-0.88,-70.06,105.94,-1.25,0.62,0.19,3,4
1772399740.594852,9498869,0.09,0.1,0.06,-170.69,-67.19,252.87,-0.37,-1.5,-0.75,-0.1,-0.12,-0.04,-0.88,-70.06,105.94,1.0,1.0,0.13,3,5
1772399740.634878,9498909,0.1,0.02,0.1,-170.69,-67.25,252.94,0.75,-2.31,-0.19,0.0,-0.18,-0.15,-0.88,-70.12,105.94,1.12,1.25,-0.81,4,5
1772399740.67509,9498949,0.17,0.07,0.08,-170.56,-67.37,252.94,0.62,-2.37,1.5,0.0,-0.15,-0.13,-0.88,-70.19,106.0,2.56,0.19,-0.69,4,5
1772399740.715394,9498990,0.09,0.03,0.11,-170.44,-67.44,252.94,1.06,-2.75,0.88,-0.02,-0.14,-0.18,-0.94,-70.19,106.06,1.06,-0.06,-0.13,4,5
1772399740.75568,9499030,0.06,0.05,0.09,-170.44,-67.56,253.0,0.69,-2.5,-0.37,-0.03,-0.12,-0.1,-0.94,-70.19,106.06,-0.62,-0.37,0.31,4,5
1772399740.795873,9499070,0.02,-0.02,0.09,-170.56,-67.62,253.06,0.88,-2.12,-1.44,-0.06,-0.13,-0.05,-0.94,-70.19,106.06,-0.75,-0.25,0.37,3,3
1772399740.835878,9499110,0.0,-0.02,0.09,-170.62,-67.75,253.12,0.5,-1.12,-1.31,-0.03,-0.08,-0.07,-0.94,-70.19,106.06,-0.62,-0.31,0.25,3,3
1772399740.8764,9499150,0.09,-0.03,0.11,-170.75,-67.75,253.19,0.69,-0.06,-1.06,-0.01,-0.06,-0.06,-0.94,-70.19,106.06,0.62,-0.19,-0.06,3,3
1772399740.916328,9499190,0.14,-0.05,0.06,-170.87,-67.75,253.31,0.88,-0.13,-0.56,-0.03,-0.08,-0.13,-0.94,-70.19,106.06,0.62,0.13,0.06,3,3
1772399740.95649,9499231,0.08,-0.04,0.09,-170.87,-67.75,253.37,1.06,-0.75,-0.19,-0.04,-0.12,-0.09,-0.94,-70.19,106.06,0.31,-0.13,-0.06,3,2
1772399740.996485,9499271,0.02,0.0,0.04,-170.94,-67.75,253.37,0.94,-0.19,0.13,-0.02,-0.09,-0.05,-0.94,-70.19,106.06,0.25,-0.25,0.0,3,2
1772399741.036504,9499311,0.0,0.02,0.07,-170.94,-67.75,253.44,0.75,0.69,0.25,-0.03,-0.12,-0.04,-0.94,-70.19,106.06,0.06,-0.06,0.0,2,2
1772399741.077156,9499351,-0.09,0.07,0.08,-171.0,-67.69,253.5,0.88,2.87,0.0,-0.01,-0.12,-0.09,-0.94,-70.19,106.06,-0.5,-0.13,0.0,4,2
1772399741.117031,9499391,0.0,0.11,0.12,-171.12,-67.5,253.56,2.5,6.81,0.5,-0.02,-0.17,-0.04,-0.94,-70.19,106.06,-0.25,-0.25,0.13,4,3
1772399741.157092,9499431,0.13,0.08,0.1,-171.25,-67.19,253.75,6.37,8.0,3.69,-0.05,-0.1,-0.09,-0.94,-70.19,106.06,0.0,-0.31,0.13,4,3
1772399741.19698,9499472,0.19,0.07,0.08,-171.19,-66.87,253.94,8.13,6.75,5.69,0.0,-0.13,-0.13,-0.94,-70.19,106.06,0.5,0.06,0.0,4,3
1772399741.237592,9499512,0.09,-0.03,0.03,-171.06,-66.62,254.19,7.31,4.56,4.94,-0.06,-0.07,-0.1,-0.94,-70.19,106.06,-0.13,-0.25,0.06,5,3
1772399741.277991,9499552,0.15,0.0,0.02,-171.0,-66.5,254.31,4.37,3.0,2.94,-0.05,-0.11,-0.07,-0.94,-70.19,106.06,-0.75,-0.44,0.0,5,3
1772399741.318285,9499592,0.11,-0.12,0.04,-171.12,-66.37,254.5,2.37,1.44,0.13,-0.05,-0.13,-0.14,-0.94,-70.19,106.06,-0.13,-0.44,-0.13,5,4
1772399741.358355,9499632,0.27,-0.02,-0.01,-171.12,-66.37,254.5,-0.13,0.75,0.0,-0.01,-0.17,-0.08,-0.94,-70.19,106.06,0.0,-0.5,0.25,5,5
1772399741.398236,9499673,0.03,0.03,0.06,-171.12,-66.37,254.5,-0.81,-1.62,0.0,-0.04,-0.12,0.01,-0.94,-70.19,106.06,0.13,-0.75,0.37,6,5
1772399741.438532,9499713,0.16,0.05,0.05,-171.06,-66.37,254.5,-0.31,0.94,0.69,-0.04,-0.1,0.02,-0.94,-70.12,106.06,-0.19,-0.5,0.37,6,5
1772399741.478766,9499753,0.1,0.06,0.06,-171.06,-66.37,254.5,0.06,-0.69,0.5,-0.03,-0.07,-0.01,-0.94,-70.12,106.06,0.19,-0.06,0.5,5,5
1772399741.518963,9499793,0.05,0.0,0.04,-171.06,-66.37,254.5,0.5,-0.37,-0.5,-0.04,-0.11,-0.08,-0.94,-70.12,106.06,0.25,0.13,-0.13,5,5
1772399741.559157,9499833,0.13,-0.03,0.04,-171.12,-66.37,254.5,0.19,-0.13,-0.25,-0.02,-0.14,-0.18,-0.94,-70.12,106.06,0.69,0.13,0.0,5,5
1772399741.599352,9499873,0.18,0.0,0.09,-171.06,-66.44,254.5,-0.06,-1.81,0.06,-0.05,-0.1,-0.09,-0.88,-70.19,106.06,-0.06,-0.06,0.06,6,5
1772399741.639581,9499914,0.07,-0.01,0.1,-171.06,-66.5,254.5,0.06,-1.94,0.19,-0.04,-0.13,-0.08,-0.81,-70.19,106.06,-0.37,-0.19,-0.06,6,5
1772399741.679996,9499954,0.07,0.0,0.13,-171.0,-66.56,254.5,-0.44,-2.31,0.06,-0.05,-0.1,-0.09,-0.81,-70.19,106.06,-0.75,-0.44,0.06,5,5
1772399741.720075,9499994,0.02,-0.01,0.12,-171.0,-66.69,254.5,-0.75,-2.37,0.13,-0.04,-0.13,-0.04,-0.69,-70.19,106.06,-0.75,-0.81,0.19,4,5
1772399741.760194,9500034,0.12,-0.03,0.1,-170.87,-66.75,254.44,-1.75,-2.0,0.44,-0.04,-0.12,-0.12,-0.69,-70.19,106.06,0.56,-0.81,0.69,5,4
1772399741.800212,9500074,0.02,0.06,0.06,-170.75,-66.87,254.31,-2.06,-2.94,0.69,-0.01,-0.15,-0.12,-0.69,-70.19,106.06,0.81,-0.37,0.56,5,4
1772399741.840409,9500115,0.08,0.09,0.04,-170.56,-66.94,254.19,-1.12,-1.25,1.0,-0.04,-0.07,-0.03,-0.69,-70.19,106.06,0.44,-0.81,0.5,5,4
1772399741.880878,9500155,0.1,0.04,0.09,-170.5,-66.94,254.19,-0.19,-1.56,0.06,-0.02,-0.1,0.02,-0.69,-70.19,106.06,-1.06,-0.56,-0.06,5,4
1772399741.92111,9500195,0.05,-0.04,0.01,-170.44,-67.06,254.19,-0.81,-1.69,-0.56,-0.07,-0.08,-0.01,-0.56,-70.19,106.06,-0.81,0.06,-0.06,5,4
1772399741.960998,9500235,0.13,0.0,0.03,-170.5,-67.12,254.12,-1.0,-2.0,-1.19,0.0,-0.1,-0.14,-0.56,-70.19,106.06,-0.5,0.06,-0.19,6,4
1772399742.001196,9500275,0.24,-0.1,0.05,-170.44,-67.25,254.06,-1.94,-3.69,-0.06,0.0,-0.11,-0.08,-0.5,-70.19,106.06,0.06,-0.31,-0.37,5,5
1772399742.041485,9500315,0.25,-0.19,0.04,-170.19,-67.44,253.87,-5.56,-6.56,-0.5,-0.02,-0.09,-0.07,-0.5,-70.19,106.06,-0.06,-0.31,0.0,5,5
1772399742.081738,9500356,0.25,-0.06,0.02,-170.0,-67.81,253.5,-11.13,-10.75,-4.75,-0.04,-0.12,-0.16,-0.5,-70.25,106.12,1.19,0.0,0.37,5,5
1772399742.121961,9500396,-0.01,0.1,0.08,-170.0,-68.25,253.12,-11.94,-10.44,-7.56,-0.03,-0.1,-0.01,-0.5,-70.25,106.12,0.44,-0.88,1.0,5,5
1772399742.162001,9500436,-0.05,0.19,0.13,-170.12,-68.69,252.87,-9.63,-9.13,-7.06,-0.03,-0.07,-0.04,-0.56,-70.19,106.06,0.69,-0.75,1.0,4,5
1772399742.202292,9500476,-0.06,0.19,0.13,-170.19,-69.06,252.69,-5.31,-7.12,-5.0,-0.02,-0.08,0.0,-0.69,-70.19,106.06,0.44,-0.69,0.75,4,5
1772399742.242236,9500516,0.0,0.17,0.12,-170.19,-69.25,252.62,-1.5,-4.62,-2.19,0.0,-0.08,-0.03,-0.69,-70.19,106.06,0.69,-0.56,0.25,4,5
1772399742.282881,9500557,-0.01,0.15,0.12,-170.19,-69.44,252.62,2.0,-2.81,-0.25,-0.02,-0.06,-0.03,-0.69,-70.19,106.06,0.88,-0.13,-0.06,5,5
1772399742.322492,9500597,0.0,-0.03,0.1,-170.19,-69.56,252.81,3.5,-1.37,0.06,-0.04,-0.09,-0.06,-0.69,-70.19,106.12,0.31,0.31,-0.06,5,5
1772399742.362947,9500637,0.03,-0.12,0.09,-170.31,-69.56,253.0,2.5,-0.25,-0.31,-0.04,-0.14,-0.12,-0.69,-70.19,106.12,-0.19,-0.13,0.31,4,5
1772399742.40287,9500677,0.04,-0.13,0.07,-170.44,-69.56,253.06,0.19,0.5,-0.37,-0.02,-0.07,-0.08,-0.62,-70.25,106.12,0.25,-0.69,0.56,4,5
1772399742.442963,9500717,0.08,0.0,0.09,-170.44,-69.56,253.06,-1.19,0.62,0.25,0.0,-0.06,-0.02,-0.69,-70.25,106.12,1.25,-0.37,0.31,4,5
1772399742.483285,9500758,0.09,0.08,0.09,-170.37,-69.5,253.0,-0.44,1.37,0.25,-0.01,-0.07,-0.06,-0.69,-70.25,106.19,1.56,0.06,0.62,4,5
1772399742.523233,9500798,0.14,-0.01,0.06,-170.44,-69.44,253.0,0.06,1.31,-0.19,-0.08,0.0,0.0,-0.75,-70.25,106.19,-0.25,-0.13,1.0,4,5
1772399742.5635,9500838,0.1,-0.04,0.06,-170.5,-69.44,253.0,-1.0,0.81,-1.31,0.0,-0.03,-0.05,-0.88,-70.25,106.12,0.13,-0.37,1.19,4,5
1772399742.603793,9500878,0.0,0.06,0.03,-170.62,-69.37,253.0,-1.06,2.0,-0.75,-0.05,-0.01,-0.04,-1.0,-70.25,106.06,0.75,-0.56,1.31,4,5
1772399742.643548,9500918,0.09,0.1,0.04,-170.62,-69.25,253.0,1.44,3.69,-0.31,0.01,-0.04,0.0,-1.19,-70.19,106.06,0.69,-0.44,0.75,4,5
1772399742.683956,9500958,0.15,0.05,0.07,-170.81,-69.12,253.12,3.62,3.62,0.5,0.0,-0.03,-0.01,-1.19,-70.19,106.06,1.06,-0.13,0.25,3,5
1772399742.724149,9500999,0.14,0.0,0.04,-170.87,-69.0,253.31,4.94,3.31,1.37,-0.03,-0.11,0.0,-1.25,-70.19,106.12,0.56,0.06,-0.19,3,5
1772399742.764205,9501039,0.12,-0.12,-0.02,-171.0,-68.87,253.5,4.56,2.94,1.5,-0.05,-0.09,-0.07,-1.25,-70.19,106.12,0.56,0.31,0.13,3,5
1772399742.804687,9501079,0.12,-0.1,-0.03,-171.0,-68.81,253.62,2.31,2.0,1.44,-0.01,-0.11,-0.07,-1.25,-70.19,106.12,0.81,0.13,-0.06,4,5
1772399742.844404,9501119,0.2,-0.03,0.0,-171.0,-68.69,253.62,0.37,0.94,1.0,0.0,0.0,-0.07,-1.31,-70.19,106.12,0.62,-0.19,0.0,3,5
1772399742.885484,9501159,0.25,-0.05,0.0,-171.0,-68.75,253.62,-0.31,-1.12,-0.31,-0.03,-0.03,-0.05,-1.31,-70.19,106.12,1.69,0.19,-0.5,3,5
1772399742.92506,9501199,0.13,0.04,0.05,-170.94,-68.81,253.62,-0.56,-3.31,-0.19,0.0,-0.07,-0.11,-1.31,-70.19,106.25,1.19,0.06,-0.81,3,5
1772399742.965516,9501240,0.07,0.0,0.08,-170.87,-68.94,253.69,1.06,-3.19,0.75,-0.05,-0.05,-0.03,-1.25,-70.19,106.25,0.25,-0.31,-0.5,3,4
1772399743.005504,9501280,0.05,-0.14,0.08,-170.75,-69.06,253.69,0.94,-2.87,0.94,-0.01,-0.02,-0.06,-1.25,-70.19,106.25,0.13,0.31,-0.37,2,4
1772399743.046272,9501320,-0.03,-0.01,0.09,-170.75,-69.19,253.69,-1.25,-2.31,-0.13,-0.01,-0.05,-0.06,-1.25,-70.19,106.25,0.37,-0.06,-0.5,2,4
1772399743.086274,9501360,0.02,0.04,0.14,-170.69,-69.19,253.62,-1.0,-0.5,-0.37,-0.03,-0.07,-0.03,-1.25,-70.19,106.25,0.25,0.25,-0.31,2,4
1772399743.125884,9501400,0.03,0.02,0.1,-170.62,-69.19,253.62,0.75,0.75,0.81,0.0,-0.05,-0.07,-1.25,-70.19,106.25,0.13,0.13,-0.62,3,4
1772399743.166145,9501440,0.06,-0.04,0.07,-170.56,-69.19,253.69,1.44,1.19,1.31,-0.02,-0.09,-0.12,-1.25,-70.19,106.25,0.25,0.31,-0.44,3,5
1772399743.206778,9501481,0.06,-0.01,0.08,-170.5,-69.12,253.62,0.25,1.31,1.0,-0.04,-0.1,-0.03,-1.25,-70.19,106.25,0.25,0.25,-0.25,3,5
1772399743.246442,9501521,0.01,0.04,0.06,-170.44,-69.06,253.62,-0.06,1.81,0.75,-0.02,-0.14,-0.07,-1.25,-70.19,106.25,0.31,0.31,-0.13,3,5
1772399743.287,9501561,0.11,0.01,0.07,-170.44,-68.94,253.56,0.5,3.06,0.62,-0.04,-0.09,-0.06,-1.25,-70.19,106.25,-0.13,0.44,-0.06,3,5
1772399743.326836,9501601,0.12,0.04,0.06,-170.37,-68.81,253.5,0.19,2.44,0.62,-0.05,-0.09,-0.1,-1.25,-70.19,106.25,-0.19,0.25,0.0,4,5
1772399743.367203,9501641,0.19,-0.08,0.09,-170.44,-68.75,253.5,0.5,1.94,0.06,-0.01,-0.11,-0.14,-1.25,-70.19,106.25,0.19,-0.06,-0.56,4,6
1772399743.407341,9501682,0.19,0.01,0.01,-170.37,-68.75,253.5,-0.75,0.06,0.69,0.0,-0.12,-0.08,-1.25,-70.19,106.25,-0.44,-0.44,-0.31,4,6
1772399743.447587,9501722,0.03,-0.02,0.0,-170.31,-68.75,253.44,-0.75,-0.44,0.5,-0.04,-0.08,-0.01,-1.25,-70.19,106.25,-0.62,-0.31,0.06,3,6
1772399743.487678,9501762,0.1,0.07,0.0,-170.31,-68.75,253.37,-1.25,0.31,0.5,-0.02,-0.08,0.0,-1.25,-70.19,106.25,0.06,-0.44,0.13,3,6
1772399743.528065,9501802,0.09,0.06,0.05,-170.25,-68.75,253.31,-0.56,-0.62,0.81,-0.02,-0.08,-0.08,-1.25,-70.19,106.25,1.25,-0.31,0.37,2,5
1772399743.568146,9501842,0.26,0.0,0.01,-170.25,-68.75,253.31,0.69,-0.75,0.31,-0.04,-0.09,-0.1,-1.31,-70.19,106.31,1.19,-0.06,0.06,2,5
1772399743.608277,9501882,0.13,0.01,0.02,-170.25,-68.81,253.37,0.81,-2.44,0.13,-0.05,-0.12,-0.06,-1.31,-70.19,106.31,0.56,-0.19,-0.37,2,5
1772399743.648695,9501923,0.13,-0.03,0.05,-170.19,-68.94,253.37,-0.62,-4.25,-0.88,-0.03,-0.1,-0.04,-1.31,-70.19,106.31,-0.06,-0.19,0.13,2,4
1772399743.689083,9501963,0.09,-0.03,0.05,-170.19,-69.12,253.37,-1.81,-4.25,-1.06,-0.03,-0.09,-0.1,-1.31,-70.19,106.31,0.44,-0.06,0.25,2,4
1772399743.729128,9502003,0.07,-0.01,0.08,-170.12,-69.31,253.31,-1.94,-3.44,-0.88,-0.01,-0.1,-0.1,-1.31,-70.19,106.31,0.62,-0.13,0.13,2,4
1772399743.769199,9502043,0.11,0.01,0.08,-170.06,-69.44,253.25,-1.69,-3.69,-0.62,-0.05,-0.12,-0.09,-1.37,-70.19,106.37,0.44,-0.19,0.0,2,4
1772399743.809071,9502083,0.01,0.04,0.06,-170.0,-69.62,253.25,-1.44,-4.19,-1.0,-0.02,-0.09,-0.1,-1.37,-70.19,106.37,0.44,0.13,-0.06,1,3
1772399743.849631,9502124,0.01,0.06,0.12,-169.94,-69.75,253.19,-0.5,-2.12,-0.5,-0.03,-0.1,-0.05,-1.37,-70.19,106.37,-0.06,-0.06,0.0,2,4
1772399743.889618,9502164,0.07,0.01,0.12,-169.94,-69.81,253.19,0.31,-0.81,-0.13,0.0,-0.11,-0.07,-1.37,-70.19,106.37,0.13,-0.13,-0.06,2,4
1772399743.929709,9502204,0.05,0.0,0.07,-169.94,-69.81,253.19,0.31,-0.37,0.25,-0.03,-0.1,-0.08,-1.37,-70.19,106.37,0.5,0.0,-0.06,2,4
1772399743.969769,9502244,0.06,0.02,0.07,-169.94,-69.81,253.19,0.13,0.25,0.5,-0.05,-0.11,-0.1,-1.37,-70.19,106.37,0.69,-0.19,-0.25,1,4
1772399744.010095,9502284,0.1,0.03,0.09,-169.94,-69.81,253.19,0.31,0.06,0.37,0.0,-0.12,-0.05,-1.44,-70.19,106.37,-0.19,-0.25,-0.44,1,4
1772399744.05016,9502324,0.01,0.06,0.06,-169.94,-69.81,253.19,0.06,0.19,0.06,-0.01,-0.07,-0.04,-1.44,-70.19,106.37,-0.31,-0.19,0.31,1,3
1772399744.090553,9502365,0.07,0.0,0.09,-170.06,-69.81,253.25,0.81,1.44,-0.94,0.0,-0.09,-0.09,-1.37,-70.19,106.37,-0.81,-0.06,-0.56,1,4
1772399744.130418,9502405,0.11,0.0,0.09,-170.06,-69.75,253.25,0.44,1.62,0.44,0.0,-0.13,-0.03,-1.31,-70.19,106.37,-0.62,-0.25,-0.56,1,4
1772399744.170746,9502445,0.07,0.0,0.04,-170.06,-69.62,253.25,0.56,2.06,0.88,-0.03,-0.14,-0.03,-1.31,-70.19,106.37,0.13,-0.62,-0.25,1,4
1772399744.210898,9502485,0.06,0.08,0.01,-170.0,-69.56,253.19,-0.13,2.69,1.12,-0.01,-0.13,-0.07,-1.31,-70.19,106.37,0.69,-0.56,0.0,1,3
1772399744.251094,9502525,0.14,0.08,0.05,-169.94,-69.44,253.19,0.5,2.31,0.62,-0.06,-0.1,0.01,-1.37,-70.19,106.44,0.31,-0.56,-0.06,0,2
1772399744.291619,9502566,0.1,0.05,0.03,-170.0,-69.37,253.19,1.06,1.56,-0.13,-0.02,-0.11,-0.02,-1.37,-70.19,106.44,-0.06,-0.94,0.44,0,2
1772399744.331406,9502606,0.11,0.02,0.05,-170.12,-69.31,253.25,1.19,2.69,-0.56,-0.01,-0.06,-0.05,-1.44,-70.12,106.37,0.25,-0.56,0.75,0,2
1772399744.371495,9502646,0.18,0.03,0.05,-170.25,-69.19,253.37,1.69,2.37,-0.37,-0.02,-0.05,-0.14,-1.44,-70.12,106.37,0.31,-0.44,0.37,0,2
1772399744.411998,9502686,0.15,0.0,0.04,-170.37,-69.12,253.5,2.56,1.5,-0.25,-0.02,-0.07,-0.07,-1.44,-70.12,106.37,-0.13,-0.5,-0.25,0,2
1772399744.452152,9502726,0.12,-0.06,0.07,-170.5,-69.12,253.62,2.87,0.25,0.37,-0.03,-0.12,-0.07,-1.44,-70.12,106.37,-1.0,-0.37,-0.62,1,2
1772399744.492522,9502767,0.12,-0.12,0.08,-170.56,-69.12,253.75,1.81,-0.56,0.56,-0.01,-0.14,-0.04,-1.37,-70.12,106.37,-0.69,-0.37,-0.44,1,2
1772399744.532497,9502807,0.12,-0.12,0.03,-170.5,-69.12,253.81,0.13,-0.5,1.0,-0.01,-0.16,-0.05,-1.31,-70.12,106.37,-0.5,-0.37,-0.31,1,1
1772399744.572605,9502847,0.17,-0.1,0.01,-170.37,-69.12,253.69,-2.56,-1.44,0.56,0.0,-0.09,-0.05,-1.31,-70.12,106.37,-0.31,-0.31,-0.06,1,1
1772399744.61324,9502887,0.22,-0.05,-0.01,-170.19,-69.19,253.44,-4.62,-2.69,-0.13,-0.01,-0.1,-0.06,-1.31,-70.12,106.37,-0.19,-0.31,0.06,2,2
1772399744.653098,9502927,0.11,-0.02,0.01,-169.94,-69.37,253.12,-7.5,-5.56,-1.81,-0.03,-0.11,-0.06,-1.31,-70.12,106.37,-0.25,0.13,-0.19,2,2
1772399744.69351,9502967,0.01,0.04,0.04,-169.81,-69.62,252.81,-8.81,-4.81,-3.31,-0.03,-0.09,0.01,-1.31,-70.12,106.37,-0.31,-0.25,-0.06,2,2
1772399744.733262,9503007,0.08,0.03,0.07,-169.81,-69.81,252.44,-8.38,-3.19,-3.62,0.01,-0.09,-0.03,-1.31,-70.12,106.37,0.19,0.31,0.13,2,2
1772399744.773373,9503048,0.06,0.09,0.04,-169.81,-69.94,252.19,-7.81,-3.12,-3.31,-0.08,-0.1,-0.06,-1.31,-70.12,106.37,0.81,0.56,0.13,2,1
1772399744.813445,9503088,-0.01,0.14,0.07,-169.81,-70.06,251.94,-5.25,-2.75,-3.31,0.0,-0.12,-0.14,-1.37,-70.12,106.37,0.13,0.56,0.0,2,2
1772399744.853679,9503128,0.09,0.12,0.1,-169.94,-70.12,251.87,-1.75,-1.19,-1.37,0.0,-0.14,-0.08,-1.37,-70.12,106.37,0.19,0.13,-0.31,2,2
1772399744.894224,9503168,0.11,0.08,0.1,-169.87,-70.19,251.87,1.25,-1.06,1.12,-0.01,-0.13,-0.11,-1.37,-70.12,106.37,0.37,0.25,-0.37,2,2
1772399744.93428,9503208,0.11,-0.06,0.07,-169.81,-70.19,251.94,1.25,-1.12,1.12,-0.06,-0.13,-0.1,-1.37,-70.12,106.37,0.19,0.13,-0.56,2,2
1772399744.974705,9503249,0.05,0.0,0.07,-169.75,-70.25,251.94,-0.13,-0.88,-0.19,-0.04,-0.16,-0.06,-1.37,-70.12,106.37,0.06,-0.13,-0.44,3,2
1772399745.01509,9503289,0.06,0.08,0.09,-169.75,-70.25,251.94,-0.25,0.5,-0.06,-0.01,-0.13,-0.04,-1.37,-70.12,106.37,0.31,0.19,-0.06,2,1
1772399745.054988,9503330,0.06,0.02,0.07,-169.81,-70.19,251.94,0.94,1.19,0.0,-0.02,-0.12,-0.08,-1.37,-70.12,106.37,0.5,0.31,-0.19,2,1
1772399745.095064,9503370,0.12,0.02,0.06,-169.87,-70.12,252.0,1.19,1.62,0.19,-0.05,-0.16,-0.14,-1.37,-70.12,106.37,0.5,0.31,0.19,2,1
1772399745.135475,9503410,0.13,-0.05,0.05,-169.94,-70.12,252.06,0.94,0.94,-0.56,-0.03,-0.12,-0.09,-1.37,-70.12,106.37,0.37,-0.25,0.75,2,1
1772399745.175689,9503450,0.11,0.01,0.06,-170.0,-70.06,252.06,0.13,0.88,-0.56,-0.03,-0.11,-0.1,-1.5,-70.12,106.31,0.5,-0.06,0.75,2,1
1772399745.21609,9503490,0.1,0.04,0.06,-170.0,-70.06,252.06,0.13,0.81,-0.5,-0.03,-0.13,-0.07,-1.56,-70.12,106.31,1.12,-0.44,0.62,3,1
1772399745.256359,9503531,0.09,0.05,0.04,-170.06,-70.0,252.06,0.69,0.75,-0.37,-0.01,-0.13,-0.07,-1.69,-70.12,106.31,1.06,-0.37,0.69,3,1
1772399745.296354,9503571,0.07,0.1,0.09,-170.12,-70.0,252.19,2.0,1.37,-0.06,-0.02,-0.13,-0.07,-1.75,-70.12,106.31,0.44,-0.37,0.69,3,1
1772399745.335978,9503610,-0.11,0.21,0.1,-170.25,-69.94,252.31,4.56,2.0,1.06,-0.02,-0.16,-0.09,-1.75,-70.12,106.31,0.88,0.0,0.13,3,4
1772399745.376506,9503651,0.37,0.08,0.05,-170.25,-69.69,252.62,11.81,5.69,5.44,-0.04,-0.12,-0.03,-1.81,-70.12,106.37,0.69,-0.06,0.0,3,4
1772399745.417091,9503691,-0.38,0.12,0.11,-170.06,-69.37,253.12,16.12,8.0,10.0,-0.05,-0.11,-0.04,-1.81,-70.12,106.37,0.37,0.0,-0.69,3,4
1772399745.457355,9503732,0.09,-0.03,0.1,-169.87,-69.12,253.56,12.94,5.81,7.06,-0.05,-0.15,-0.12,-1.75,-70.12,106.37,-0.06,0.44,-0.94,3,3
1772399745.497463,9503772,0.08,-0.16,0.08,-169.94,-68.94,253.94,7.81,4.44,2.81,-0.03,-0.18,-0.12,-1.69,-70.12,106.37,-0.25,0.37,-0.88,3,4
1772399745.537186,9503811,0.36,-0.18,-0.02,-170.12,-68.81,254.19,3.19,4.5,1.0,-0.06,-0.16,-0.08,-1.69,-70.12,106.44,0.75,0.19,0.06,2,4
1772399745.577699,9503852,0.07,-0.09,0.05,-170.25,-68.69,254.25,0.25,2.12,-0.19,-0.03,-0.2,-0.1,-1.69,-70.12,106.44,1.25,-0.37,0.06,2,4
1772399745.617663,9503892,0.12,0.03,0.01,-170.25,-68.56,254.19,-1.31,1.75,0.19,-0.02,-0.14,-0.1,-1.75,-70.12,106.5,1.06,-0.62,0.56,2,4
1772399745.657477,9503932,0.1,0.11,0.07,-170.25,-68.5,254.06,-1.37,1.25,-0.37,0.0,-0.11,-0.12,-1.81,-70.12,106.5,0.81,-0.69,0.62,2,4
1772399745.698003,9503972,0.23,0.12,0.02,-170.19,-68.5,254.0,-0.56,0.75,-0.88,-0.03,-0.1,-0.04,-1.87,-70.12,106.5,-0.19,-0.62,0.31,2,3
1772399745.737905,9504012,0.19,0.04,0.01,-170.25,-68.5,254.06,1.0,0.25,-0.37,-0.08,-0.12,-0.02,-1.87,-70.06,106.5,0.19,-0.13,-0.06,2,1
1772399745.778289,9504052,-0.01,0.03,0.01,-170.31,-68.5,254.12,1.69,-0.5,-0.13,-0.06,-0.12,-0.08,-1.87,-70.06,106.5,-0.19,-0.19,-0.25,2,1
1772399745.81838,9504093,0.09,-0.05,0.03,-170.31,-68.5,254.19,1.5,1.12,1.12,-0.02,-0.15,-0.06,-1.87,-70.06,106.5,0.56,-0.13,-0.06,2,1
1772399745.858311,9504133,0.49,-0.11,0.06,-170.19,-68.44,254.19,0.94,0.5,1.62,0.0,-0.15,-0.13,-1.87,-70.06,106.5,0.44,-0.37,0.06,2,1
1772399745.898636,9504173,0.05,0.0,0.09,-170.06,-68.5,254.12,-1.25,-0.88,0.69,-0.03,-0.13,-0.18,-1.87,-70.06,106.5,0.75,-0.19,0.25,2,1
1772399745.938667,9504213,0.17,0.04,0.06,-170.0,-68.5,254.06,-1.44,-0.69,0.25,-0.05,-0.11,-0.06,-1.87,-70.06,106.5,0.44,-0.13,0.31,2,0
1772399745.978771,9504253,0.04,0.1,0.07,-169.94,-68.56,254.0,-0.94,-1.25,-0.13,-0.04,-0.1,-0.1,-1.87,-70.06,106.5,0.25,0.0,0.13,2,1
1772399746.018989,9504293,0.07,0.03,0.07,-169.87,-68.56,254.0,-0.37,-0.88,-0.13,-0.03,-0.14,-0.1,-1.87,-70.06,106.5,0.56,0.0,-0.19,3,1
1772399746.059297,9504333,0.09,0.0,0.06,-169.81,-68.69,253.94,-1.94,-3.75,-0.88,-0.02,-0.13,-0.07,-1.87,-70.06,106.5,0.37,-0.06,-0.19,3,1
1772399746.099765,9504374,0.18,-0.13,0.05,-169.75,-68.87,253.81,-1.19,-3.5,-0.56,-0.04,-0.16,-0.11,-1.87,-70.06,106.5,0.31,0.19,-0.31,4,2
1772399746.139503,9504414,0.09,-0.02,0.02,-169.69,-69.06,253.75,-2.62,-5.19,-1.19,-0.01,-0.17,-0.06,-1.87,-70.06,106.5,0.06,0.19,-0.25,4,2
1772399746.179913,9504454,0.03,-0.03,0.03,-169.56,-69.25,253.69,-1.25,-1.31,0.06,-0.04,-0.11,-0.06,-1.87,-70.06,106.5,-0.06,-0.25,-0.13,4,2
1772399746.220022,9504494,0.07,0.01,0.03,-169.44,-69.31,253.62,-2.19,-1.87,-0.56,0.0,-0.15,-0.11,-1.87,-70.06,106.5,0.62,0.37,-0.31,4,2
1772399746.2603,9504534,0.06,0.02,0.02,-169.44,-69.31,253.5,-2.62,-0.81,-1.06,-0.04,-0.13,-0.06,-1.87,-70.06,106.5,0.0,-0.06,-0.37,4,2
1772399746.300601,9504575,0.02,0.09,0.07,-169.44,-69.37,253.44,-2.19,-0.44,-1.37,-0.02,-0.11,-0.12,-1.94,-70.06,106.5,0.13,0.0,-0.06,4,2
1772399746.340643,9504615,0.1,0.01,0.1,-169.56,-69.37,253.44,-0.37,-0.37,-1.06,0.0,-0.15,-0.11,-1.94,-70.06,106.5,-0.19,-0.44,-0.31,4,3
1772399746.380907,9504655,0.06,0.04,0.07,-169.56,-69.37,253.44,0.75,-0.13,0.13,-0.01,-0.15,-0.1,-1.94,-70.06,106.5,0.31,-0.44,-0.31,4,2
1772399746.42099,9504695,0.1,-0.04,0.03,-169.62,-69.37,253.5,1.75,0.5,0.37,-0.03,-0.19,-0.12,-1.94,-70.06,106.5,0.25,-0.44,-0.37,4,2
1772399746.462005,9504736,0.11,-0.01,0.06,-169.62,-69.37,253.56,0.13,-0.25,0.13,-0.04,-0.17,-0.03,-1.94,-70.06,106.5,-0.37,-0.69,-0.06,3,2
1772399746.502328,9504777,0.04,0.01,0.05,-169.62,-69.37,253.56,-0.37,0.31,-0.13,-0.04,-0.15,-0.05,-1.87,-70.06,106.5,0.31,-0.5,0.06,2,1
1772399746.541836,9504816,0.09,0.06,0.04,-169.62,-69.37,253.5,0.13,0.75,0.06,-0.03,-0.15,-0.05,-1.87,-70.06,106.5,0.31,-0.5,0.13,1,1
1772399746.582327,9504857,0.13,0.03,0.05,-169.69,-69.31,253.56,0.44,0.81,0.19,-0.03,-0.17,-0.12,-1.94,-70.0,106.5,0.69,-0.25,0.0,1,1
1772399746.62362,9504898,0.14,0.0,0.02,-169.69,-69.31,253.56,0.69,0.5,-0.19,-0.03,-0.14,-0.08,-1.94,-70.0,106.5,-0.06,-0.56,0.25,1,1
1772399746.666593,9504941,0.1,-0.02,0.03,-169.69,-69.31,253.56,0.31,0.0,-0.44,-0.01,-0.14,-0.08,-1.94,-70.0,106.5,0.19,-0.5,0.19,1,1
1772399746.707294,9504981,0.12,0.05,0.05,-169.69,-69.31,253.56,0.5,-0.13,-0.06,-0.03,-0.15,-0.08,-1.94,-70.0,106.5,0.5,-0.5,-0.19,2,1
1772399746.748133,9505022,0.08,0.02,0.06,-169.69,-69.31,253.62,1.5,-0.62,-0.13,-0.04,-0.14,-0.1,-1.94,-70.0,106.5,0.31,-0.25,-0.44,2,1
1772399746.791095,9505065,0.04,-0.07,0.05,-169.75,-69.31,253.69,1.62,-0.06,0.25,0.07,-0.14,-0.01,-1.94,-70.0,106.5,-0.13,-0.44,-0.06,2,2
1772399746.831989,9505106,0.07,0.0,0.06,-169.81,-69.31,253.81,0.69,0.56,-0.06,-0.05,-0.13,-0.03,-1.94,-69.94,106.56,0.37,0.13,-0.31,2,3
1772399746.872586,9505147,0.12,-0.03,0.05,-169.87,-69.31,253.81,0.25,0.88,-0.06,-0.02,-0.19,-0.09,-1.94,-69.94,106.56,0.5,0.25,-0.44,2,4
1772399746.913438,9505188,0.1,-0.03,0.02,-169.87,-69.25,253.81,-0.13,0.62,0.19,-0.04,-0.15,-0.04,-1.94,-69.94,106.56,0.31,-0.25,-0.19,2,4
1772399746.954015,9505228,0.15,0.02,0.02,-169.81,-69.25,253.75,-0.69,0.56,0.13,-0.02,-0.16,-0.1,-1.94,-69.94,106.56,0.62,0.0,-0.13,2,4
1772399746.994081,9505268,0.16,0.04,0.03,-169.81,-69.25,253.75,-0.62,-0.13,0.19,-0.05,-0.16,-0.06,-2.0,-69.94,106.56,0.25,-0.13,-0.19,2,5
1772399747.034648,9505309,0.09,0.08,0.03,-169.81,-69.25,253.75,0.19,-0.06,0.5,-0.02,-0.13,-0.17,-2.0,-69.94,106.56,1.44,0.5,0.31,2,5
1772399747.076646,9505351,0.09,-0.01,0.04,-169.87,-69.25,253.75,1.44,-0.19,-0.19,-0.03,-0.18,-0.09,-2.0,-69.94,106.62,0.13,0.0,-0.31,2,5
1772399747.119606,9505394,0.09,-0.04,0.06,-169.87,-69.25,253.87,1.12,0.19,0.44,0.0,-0.18,-0.09,-2.0,-69.94,106.62,-0.06,0.13,-0.06,2,5
1772399747.159903,9505434,0.07,-0.06,0.08,-169.94,-69.25,253.87,-0.13,0.37,0.25,-0.01,-0.16,-0.08,-2.0,-69.94,106.62,0.31,0.13,0.0,2,4
1772399747.202623,9505477,0.04,0.05,0.06,-169.87,-69.25,253.81,-0.69,1.12,0.5,-0.02,-0.2,-0.04,-2.06,-69.94,106.62,0.62,0.19,0.19,2,4
1772399747.243709,9505518,0.08,0.02,0.04,-169.94,-69.19,253.81,-0.37,1.37,0.5,-0.07,-0.16,-0.09,-2.06,-69.94,106.62,0.25,-0.13,0.25,1,3
1772399747.284398,9505559,0.04,0.07,0.05,-169.94,-69.12,253.81,0.13,2.19,0.0,-0.04,-0.14,-0.07,-2.06,-69.94,106.62,0.13,-0.13,-0.13,2,2
1772399747.325192,9505600,0.08,0.03,0.04,-170.0,-69.0,253.81,1.06,3.5,0.5,-0.03,-0.18,-0.15,-2.06,-69.94,106.62,0.75,-0.06,0.13,1,2
1772399747.365445,9505640,0.11,0.03,0.06,-170.06,-68.87,253.87,2.0,4.19,0.94,-0.01,-0.16,-0.1,-2.0,-70.0,106.62,0.37,-0.19,0.19,2,2
1772399747.405452,9505680,0.08,0.04,0.01,-170.19,-68.69,253.94,1.94,3.44,0.5,-0.03,-0.14,-0.12,-1.94,-70.0,106.69,0.56,0.25,0.19,1,2
1772399747.445715,9505720,0.0,-0.01,0.01,-170.31,-68.5,254.06,1.19,6.44,0.06,-0.05,-0.13,-0.04,-1.87,-70.06,106.69,-0.69,-0.25,0.0,2,1
1772399747.486972,9505761,0.4,-0.05,0.06,-170.56,-68.25,254.06,0.19,5.94,-1.62,-0.03,-0.14,-0.05,-1.75,-70.06,106.69,-1.12,-0.31,-0.31,2,1
1772399747.528263,9505803,0.13,-0.02,0.02,-170.75,-68.12,254.12,-0.37,1.62,-1.25,-0.04,-0.16,-0.13,-1.62,-70.06,106.69,-0.69,0.25,-0.19,2,2
1772399747.569718,9505844,0.06,0.0,0.06,-170.81,-68.06,254.12,0.0,2.81,0.69,-0.03,-0.16,-0.09,-1.56,-70.06,106.69,0.25,-0.31,-0.13,4,2
1772399747.608616,9505883,0.14,0.03,0.07,-170.69,-67.87,254.06,-0.19,3.62,2.19,-0.02,-0.14,-0.04,-1.5,-70.06,106.69,0.5,-0.44,-0.13,4,3
1772399747.64757,9505922,0.18,0.04,0.05,-170.5,-67.81,253.94,-0.19,1.69,1.87,-0.01,-0.15,0.03,-1.44,-70.12,106.75,0.69,-0.13,-0.13,4,3
1772399747.689185,9505964,0.22,0.13,0.03,-170.37,-67.81,253.87,-1.25,-1.19,0.69,-0.02,-0.2,-0.12,-1.44,-70.12,106.75,1.44,0.19,0.0,5,4
1772399747.731542,9506006,0.07,0.1,0.01,-170.31,-67.81,253.81,-0.44,-0.37,0.56,-0.06,-0.15,-0.07,-1.44,-70.12,106.81,0.19,0.25,-0.13,5,4
1772399747.773556,9506048,0.12,0.09,-0.01,-170.25,-67.81,253.81,0.56,-0.94,-0.19,-0.03,-0.13,-0.1,-1.37,-70.12,106.81,0.19,0.06,0.25,6,4
1772399747.812985,9506087,0.1,-0.01,0.06,-170.25,-67.87,253.87,0.5,-1.19,0.13,-0.02,-0.16,-0.07,-1.31,-70.12,106.81,0.19,-0.25,0.0,6,5
1772399747.855736,9506130,0.04,0.04,0.09,-170.25,-67.94,253.87,-0.13,-1.12,0.62,-0.01,-0.14,-0.05,-1.25,-70.19,106.87,0.5,-0.44,0.06,6,5
1772399747.89679,9506171,0.13,-0.02,0.09,-170.19,-68.0,253.81,-0.37,-0.5,0.37,-0.01,-0.14,-0.09,-1.19,-70.19,106.87,0.31,-0.19,0.19,6,5
1772399747.937912,9506212,0.06,0.06,0.08,-170.12,-68.0,253.75,-1.19,-0.75,-0.31,-0.04,-0.09,-0.08,-1.12,-70.19,106.87,-0.19,-0.31,0.13,6,5
1772399747.978473,9506253,0.1,0.05,0.06,-170.12,-68.0,253.75,-0.81,-0.06,-0.37,-0.03,-0.08,-0.03,-1.12,-70.19,106.87,0.37,-0.13,0.25,4,4
1772399748.019466,9506294,0.34,0.04,0.09,-170.12,-68.0,253.75,-0.25,-1.69,-0.56,-0.07,-0.1,0.02,-1.06,-70.19,106.87,0.56,-0.19,-0.13,4,4
1772399748.059087,9506333,0.08,0.03,0.01,-170.06,-68.19,253.75,-0.69,-4.62,0.06,-0.03,-0.11,-0.14,-1.06,-70.19,106.94,0.5,0.0,-0.13,3,3
1772399748.098579,9506373,0.11,0.0,0.06,-170.0,-68.31,253.75,-0.25,-2.87,0.25,0.0,-0.09,-0.04,-1.0,-70.25,106.94,0.06,-0.19,0.0,3,2
1772399748.139669,9506414,0.22,-0.04,0.03,-169.94,-68.37,253.75,-0.56,-2.75,-0.25,-0.03,-0.08,-0.03,-1.0,-70.25,106.94,0.56,0.25,0.0,2,2
1772399748.181101,9506455,0.18,0.03,-0.02,-169.87,-68.56,253.69,-1.81,-4.12,-1.0,-0.02,-0.1,-0.08,-0.94,-70.25,106.94,0.37,0.5,-0.13,2,2
1772399748.223173,9506497,0.12,0.0,-0.06,-169.87,-68.75,253.69,-1.62,-6.0,-1.37,-0.04,-0.1,-0.04,-0.94,-70.25,106.94,-0.25,0.19,-0.06,2,1
1772399748.262018,9506536,0.0,0.06,0.03,-169.75,-69.0,253.62,-1.25,-4.06,-0.5,-0.01,-0.13,0.02,-0.88,-70.25,106.94,0.44,-0.13,-0.19,2,3
1772399748.300916,9506575,0.2,0.0,0.06,-169.69,-69.06,253.62,-0.81,-2.87,0.13,-0.01,-0.1,-0.04,-0.88,-70.25,107.0,0.62,-0.13,-0.19,3,3
1772399748.343925,9506618,-0.02,0.03,0.07,-169.56,-69.25,253.56,-0.88,-4.44,0.81,-0.02,-0.13,-0.11,-0.88,-70.25,107.0,1.12,0.31,-0.13,3,3
1772399748.386919,9506661,0.0,0.07,0.09,-169.37,-69.31,253.5,-0.31,-0.37,1.12,-0.04,-0.13,-0.05,-0.88,-70.25,107.0,0.31,-0.44,0.25,3,3
1772399748.428363,9506703,-0.02,0.06,0.12,-169.25,-69.31,253.44,0.81,1.5,1.25,-0.04,-0.09,-0.06,-0.88,-70.25,107.0,-0.06,-0.25,0.13,3,3
1772399748.468759,9506743,0.07,0.13,0.12,-169.19,-69.19,253.44,1.94,3.5,1.44,-0.04,-0.08,-0.1,-0.88,-70.25,107.06,0.94,0.06,0.06,4,3
1772399748.509646,9506784,0.32,0.0,0.13,-169.31,-69.0,253.56,3.87,4.94,1.25,0.0,-0.11,-0.17,-0.94,-70.25,107.06,0.44,-0.19,-0.62,4,4
1772399748.550008,9506824,0.05,0.0,0.13,-169.31,-68.87,253.69,3.0,4.0,1.44,0.0,-0.09,-0.11,-0.88,-70.25,107.06,0.0,-0.06,-0.25,5,4
1772399748.590928,9506865,0.05,0.03,0.08,-169.44,-68.75,253.75,1.0,2.12,0.25,-0.02,-0.14,-0.07,-0.88,-70.25,107.06,-0.06,0.0,-0.06,4,4
1772399748.63232,9506907,0.04,0.05,0.06,-169.5,-68.62,253.75,-0.75,4.31,-0.44,-0.02,-0.12,0.02,-0.88,-70.25,107.06,0.25,-0.25,0.19,4,4
1772399748.6739,9506948,0.25,0.07,0.0,-169.56,-68.5,253.69,-1.0,3.31,-0.5,-0.04,-0.09,0.01,-0.94,-70.25,107.06,1.12,-0.31,0.25,4,3
1772399748.713004,9506987,0.2,0.16,-0.03,-169.62,-68.37,253.69,0.0,3.12,-0.37,-0.01,-0.1,-0.05,-1.0,-70.25,107.12,0.69,-0.19,0.06,3,3
1772399748.751939,9507026,0.0,0.09,-0.01,-169.75,-68.25,253.75,1.12,2.56,-0.62,0.0,-0.09,-0.06,-1.0,-70.25,107.12,0.62,-0.25,0.0,4,4
1772399748.79339,9507068,0.25,0.05,-0.06,-169.81,-68.12,253.81,1.69,1.94,-0.25,-0.03,-0.09,-0.07,-1.0,-70.25,107.12,0.37,-0.25,0.06,5,4
1772399748.83601,9507110,0.23,-0.01,0.01,-169.94,-68.12,253.87,1.06,-1.69,-0.88,-0.03,-0.1,0.0,-1.0,-70.25,107.12,0.31,-0.44,0.13,4,5
1772399748.878082,9507152,0.15,0.0,0.01,-170.0,-68.12,254.0,0.94,-0.56,-0.5,-0.04,-0.12,-0.05,-1.0,-70.25,107.12,0.31,-0.13,0.06,4,5
1772399748.917524,9507192,0.07,-0.02,0.05,-170.06,-68.19,254.06,0.56,-1.31,-0.06,-0.03,-0.1,-0.04,-1.0,-70.25,107.12,0.5,-0.13,0.13,4,4
1772399748.960357,9507235,0.06,-0.02,0.09,-170.06,-68.19,254.06,-0.13,-1.12,0.13,-0.02,-0.07,-0.09,-1.0,-70.25,107.12,0.69,-0.44,0.06,4,4
1772399749.001388,9507276,0.07,0.0,0.11,-170.0,-68.25,254.0,-1.06,-1.56,0.06,0.0,-0.07,-0.05,-1.0,-70.25,107.12,0.25,-0.06,0.0,5,4
1772399749.042558,9507317,0.05,0.03,0.05,-169.94,-68.31,253.94,-1.25,-1.5,-0.06,-0.07,-0.11,-0.02,-1.0,-70.25,107.12,0.25,0.25,0.0,5,4
1772399749.083664,9507358,0.13,-0.01,0.06,-169.81,-68.37,253.87,-1.87,-1.87,-0.56,0.0,-0.08,-0.06,-1.0,-70.25,107.12,-0.19,-0.56,0.0,4,3
1772399749.124709,9507399,0.11,0.02,0.06,-169.69,-68.5,253.75,-2.12,-1.94,-0.5,-0.03,-0.08,-0.08,-1.06,-70.25,107.12,0.75,0.13,-0.06,4,3
1772399749.164006,9507438,0.08,0.04,0.06,-169.62,-68.56,253.69,-1.81,-3.44,-1.0,-0.04,-0.1,-0.04,-1.06,-70.25,107.12,0.13,-0.13,-0.25,3,2
1772399749.203671,9507478,0.18,-0.03,0.08,-169.62,-68.62,253.69,0.13,-1.06,-0.13,-0.01,-0.12,-0.08,-1.06,-70.25,107.12,0.25,0.0,-0.44,2,2
1772399749.244781,9507519,0.06,-0.01,0.06,-169.56,-68.75,253.69,-1.06,-2.94,0.13,0.0,-0.12,-0.06,-1.06,-70.25,107.12,0.37,-0.06,0.0,3,1
1772399749.287566,9507562,0.06,0.0,0.05,-169.44,-68.81,253.62,-1.37,-1.69,0.31,-0.03,-0.11,-0.07,-1.06,-70.25,107.12,0.25,-0.31,0.13,3,1
1772399749.330553,9507605,0.05,0.03,0.05,-169.37,-68.87,253.5,-1.69,-1.31,0.06,-0.04,-0.11,-0.04,-1.06,-70.25,107.12,0.37,-0.19,0.0,3,1
1772399749.36964,9507644,0.05,0.08,0.06,-169.25,-68.94,253.37,-1.19,-0.5,-0.56,-0.02,-0.07,-0.03,-1.06,-70.25,107.12,0.25,-0.25,-0.13,2,1
1772399749.412571,9507687,0.1,0.04,0.08,-169.25,-68.94,253.37,-0.19,-0.19,-0.37,-0.01,-0.1,-0.05,-1.06,-70.25,107.12,0.31,0.19,-0.13,2,1
1772399749.453313,9507728,0.14,0.02,0.07,-169.25,-68.94,253.37,0.31,-0.25,-0.06,0.0,-0.09,-0.09,-1.06,-70.25,107.12,0.13,-0.19,0.06,2,2
1772399749.494421,9507769,0.11,0.0,0.06,-169.25,-68.94,253.37,0.13,-0.81,-0.31,-0.03,-0.1,-0.08,-1.06,-70.25,107.12,0.06,0.06,0.19,3,2
1772399749.535345,9507810,0.08,0.03,0.05,-169.25,-69.0,253.44,-0.25,-1.19,-0.69,-0.03,-0.09,-0.05,-1.06,-70.25,107.12,0.25,0.06,0.13,3,3
1772399749.577126,9507852,0.08,0.03,0.01,-169.31,-69.06,253.44,0.13,-0.88,-0.62,-0.02,-0.12,-0.06,-1.06,-70.25,107.12,0.0,-0.06,0.13,3,3
1772399749.618619,9507893,0.1,-0.03,0.07,-169.31,-69.06,253.44,0.62,-1.12,-0.06,-0.03,-0.1,-0.06,-1.06,-70.25,107.12,0.0,-0.06,-0.06,4,5
1772399749.659463,9507934,0.11,-0.03,0.09,-169.31,-69.12,253.5,0.5,-1.06,0.0,-0.01,-0.13,-0.06,-1.06,-70.25,107.12,0.13,0.25,-0.06,3,5
1772399749.702412,9507977,0.08,-0.03,0.07,-169.31,-69.19,253.5,-0.37,-1.06,0.06,-0.02,-0.1,-0.02,-1.06,-70.25,107.12,0.13,0.19,-0.13,3,5
1772399749.744175,9508018,0.08,0.0,0.05,-169.25,-69.19,253.44,-0.37,-0.31,0.19,-0.02,-0.13,-0.05,-1.06,-70.25,107.12,0.56,0.31,-0.25,3,5
1772399749.784944,9508059,0.07,0.01,0.06,-169.25,-69.19,253.44,-0.44,-0.06,0.19,-0.03,-0.09,-0.07,-1.06,-70.25,107.12,0.19,0.44,-0.37,3,5
1772399749.82601,9508101,0.09,0.08,0.07,-169.25,-69.19,253.44,-0.13,-0.13,0.13,-0.03,-0.09,-0.15,-1.06,-70.25,107.19,0.37,0.44,0.0,3,5
1772399749.867582,9508142,0.12,-0.06,0.13,-169.25,-69.19,253.44,0.56,-0.44,-0.37,-0.02,-0.1,-0.1,-1.06,-70.25,107.19,-0.25,-0.44,-0.13,2,5
1772399749.906691,9508181,0.03,0.0,0.12,-169.25,-69.25,253.44,-0.5,-0.94,0.31,0.0,-0.15,-0.07,-1.06,-70.25,107.19,0.31,-0.06,-0.25,2,4
1772399749.948043,9508222,0.08,-0.02,0.1,-169.25,-69.25,253.44,-0.06,0.88,-0.37,-0.04,-0.12,-0.09,-1.06,-70.25,107.19,0.25,0.25,-0.06,2,4
1772399749.990764,9508265,0.07,-0.02,0.06,-169.25,-69.19,253.44,-1.0,0.62,-0.44,-0.04,-0.11,-0.09,-1.06,-70.25,107.19,0.0,-0.56,0.37,2,3
1772399750.030935,9508305,0.0,0.02,0.11,-169.19,-69.19,253.37,-1.69,0.81,0.44,-0.02,-0.06,-0.06,-1.06,-70.19,107.19,-0.13,-1.5,0.56,1,1
1772399750.069652,9508344,0.01,0.15,0.13,-169.19,-69.12,253.31,0.81,2.81,0.31,0.0,-0.11,-0.03,-1.06,-70.19,107.19,0.62,-0.62,0.31,2,1
1772399750.108753,9508383,0.09,0.11,0.07,-169.31,-69.0,253.37,2.06,4.25,0.62,-0.02,-0.13,-0.05,-1.06,-70.19,107.19,0.69,-0.25,0.37,1,1
1772399750.151514,9508426,0.24,0.02,0.01,-169.44,-68.81,253.5,2.87,4.87,0.25,-0.03,-0.14,-0.11,-1.12,-70.12,107.19,-0.75,-0.62,0.62,2,1
1772399750.193934,9508468,0.12,0.0,0.02,-169.62,-68.69,253.62,1.0,2.69,-1.19,-0.03,-0.14,-0.08,-1.12,-70.12,107.12,-0.88,-0.75,0.94,2,1
1772399750.236168,9508510,0.22,0.0,0.02,-169.87,-68.56,253.69,0.37,2.31,-1.25,-0.03,-0.09,-0.03,-1.19,-70.12,107.06,-0.56,-0.62,0.81,2,1
1772399750.2763,9508551,0.14,0.04,0.06,-170.0,-68.5,253.75,0.75,2.19,-0.94,-0.02,-0.06,-0.05,-1.25,-70.12,107.06,0.0,-0.5,0.37,2,1
1772399750.317351,9508592,0.11,0.0,0.04,-170.06,-68.44,253.81,1.56,1.19,-0.31,-0.03,-0.06,-0.07,-1.25,-70.12,107.06,0.13,-0.25,0.19,4,2
1772399750.357754,9508632,0.03,0.0,0.05,-170.19,-68.44,253.87,1.5,0.69,0.25,-0.01,-0.08,-0.07,-1.25,-70.12,107.06,0.19,-0.44,0.13,4,3
1772399750.399308,9508674,0.0,0.0,0.07,-170.25,-68.37,253.94,1.06,0.94,-0.06,-0.03,-0.07,-0.03,-1.25,-70.12,107.06,-0.19,-0.5,0.37,4,3
1772399750.441247,9508716,0.13,-0.02,0.0,-170.25,-68.31,254.0,0.75,1.31,-0.37,0.0,-0.07,-0.05,-1.25,-70.12,107.06,-0.13,0.13,0.44,3,4
1772399750.482699,9508757,0.14,0.02,0.06,-170.31,-68.25,254.0,1.12,1.69,-0.19,-0.03,-0.09,-0.02,-1.19,-70.12,107.06,-0.13,0.06,-0.19,3,4
1772399750.521576,9508796,0.11,0.0,0.04,-170.37,-68.25,254.06,1.44,0.69,0.31,-0.01,-0.08,-0.11,-1.25,-70.12,107.06,-0.13,0.19,0.06,4,4
1772399750.562938,9508837,0.13,-0.08,0.05,-170.44,-68.19,254.12,1.56,0.56,0.25,-0.01,-0.14,-0.08,-1.19,-70.12,107.06,-0.75,-0.13,-0.5,3,4
1772399750.605671,9508880,0.1,-0.04,0.09,-170.44,-68.25,254.19,-0.13,-0.44,1.0,0.0,-0.12,-0.1,-1.19,-70.12,107.0,-0.81,-0.37,-0.31,3,4
1772399750.647917,9508922,0.03,-0.02,0.07,-170.25,-68.25,254.06,-1.25,-0.25,0.69,-0.04,-0.13,-0.07,-1.19,-70.12,107.0,-0.56,-0.06,-0.31,3,4
1772399750.688921,9508963,0.0,0.04,0.07,-170.12,-68.25,253.94,-2.0,0.06,0.69,-0.05,-0.11,0.0,-1.19,-70.12,107.0,-0.31,-0.06,-0.31,3,3
1772399750.729693,9509004,0.01,0.12,0.08,-170.0,-68.19,253.81,-1.75,0.62,0.69,0.0,-0.06,-0.03,-1.19,-70.12,107.0,-0.25,0.5,0.0,2,3
1772399750.771308,9509046,0.1,0.02,0.07,-170.0,-68.19,253.75,-1.0,0.94,-0.5,-0.03,-0.11,-0.05,-1.19,-70.12,107.0,-0.19,0.5,-0.19,2,2
1772399750.810565,9509085,0.24,-0.04,0.02,-169.87,-68.19,253.62,-2.37,-2.06,-0.56,0.0,-0.11,-0.1,-1.19,-70.12,107.0,0.13,0.69,0.06,2,2
1772399750.852352,9509127,0.27,0.02,0.02,-169.81,-68.31,253.56,-1.06,-1.31,-0.56,0.0,-0.06,-0.07,-1.19,-70.12,107.0,-0.06,0.44,0.37,2,1
1772399750.894475,9509169,0.19,0.03,0.0,-169.81,-68.37,253.5,-2.12,-3.5,-1.19,-0.04,-0.09,-0.04,-1.19,-70.12,107.0,0.31,0.19,0.13,2,2
1772399750.936853,9509211,0.03,0.06,0.01,-169.81,-68.56,253.44,-1.19,-4.44,-0.88,-0.04,-0.1,-0.04,-1.19,-70.12,107.0,0.56,0.13,0.0,2,2
1772399750.976183,9509251,0.09,0.03,0.07,-169.75,-68.75,253.5,0.06,-2.81,-0.44,-0.02,-0.11,-0.04,-1.19,-70.12,107.0,0.19,0.0,0.06,2,2
1772399751.017344,9509292,0.08,-0.01,0.13,-169.75,-68.81,253.5,0.88,-3.69,-0.19,-0.01,-0.11,-0.05,-1.19,-70.12,107.0,0.06,0.31,-0.13,2,2
1772399751.059649,9509334,0.18,-0.08,0.07,-169.69,-68.94,253.56,0.13,-2.06,0.25,-0.02,-0.12,-0.04,-1.19,-70.12,107.0,-0.06,-0.19,-0.19,1,2
1772399751.101127,9509375,-0.02,0.0,0.08,-169.62,-69.0,253.5,-0.81,-1.94,0.37,-0.04,-0.13,-0.02,-1.19,-70.19,107.0,0.69,0.19,-0.19,1,3
1772399751.142053,9509417,0.09,0.05,0.08,-169.56,-69.06,253.44,-0.75,-0.44,0.81,0.0,-0.09,-0.07,-1.19,-70.19,107.06,0.5,0.06,0.19,1,3
1772399751.183959,9509458,0.08,0.05,0.07,-169.5,-69.06,253.44,-0.56,0.31,0.31,-0.04,-0.08,-0.09,-1.25,-70.19,107.06,1.0,0.31,0.31,2,3
1772399751.225114,9509500,0.14,0.08,0.11,-169.5,-69.06,253.44,0.5,-0.31,-1.25,-0.01,-0.1,-0.13,-1.25,-70.19,107.06,0.37,0.19,0.0,2,3
1772399751.266261,9509540,0.15,0.0,0.1,-169.62,-69.06,253.5,1.06,-1.19,-0.31,-0.02,-0.11,-0.13,-1.25,-70.19,107.06,-0.06,0.06,-0.19,2,3
1772399751.30887,9509583,0.05,-0.09,0.09,-169.62,-69.12,253.62,1.06,-1.06,-0.06,-0.02,-0.13,-0.05,-1.25,-70.19,107.06,0.13,0.0,-0.06,2,3
1772399751.350926,9509625,0.04,-0.04,0.06,-169.62,-69.19,253.62,-0.31,-0.56,0.0,-0.03,-0.14,-0.05,-1.25,-70.19,107.06,0.19,-0.25,-0.06,2,2
1772399751.392005,9509666,0.01,-0.04,0.01,-169.62,-69.19,253.62,-0.62,0.19,-0.06,-0.04,-0.12,-0.02,-1.25,-70.19,107.06,0.06,0.0,0.25,2,2
1772399751.433214,9509708,0.04,0.03,0.04,-169.62,-69.12,253.56,-0.31,1.12,-0.31,-0.04,-0.09,-0.02,-1.25,-70.19,107.06,0.0,-0.06,0.19,1,2
1772399751.473307,9509748,0.11,-0.02,0.07,-169.69,-69.06,253.56,0.19,1.69,-0.19,-0.02,-0.09,-0.1,-1.25,-70.19,107.06,0.75,0.31,0.13,1,1
1772399751.513242,9509788,0.14,0.0,0.03,-169.69,-69.06,253.56,0.31,1.0,0.06,-0.02,-0.11,-0.12,-1.25,-70.19,107.06,0.25,-0.06,0.06,2,1
1772399751.554944,9509829,0.15,0.0,0.06,-169.69,-69.0,253.56,0.69,0.06,0.13,-0.03,-0.09,-0.1,-1.25,-70.19,107.06,-0.06,-0.06,0.13,2,1
1772399751.597255,9509872,0.06,-0.01,0.04,-169.69,-69.06,253.62,0.37,-0.69,-0.13,-0.03,-0.08,-0.06,-1.25,-70.19,107.06,-0.25,0.0,0.06,2,2
1772399751.63927,9509914,-0.01,0.01,0.07,-169.69,-69.06,253.62,0.69,0.69,0.5,-0.03,-0.12,-0.05,-1.25,-70.19,107.06,-0.19,0.0,-0.06,2,2
1772399751.678225,9509953,0.08,0.0,0.12,-169.75,-69.0,253.62,1.0,1.75,1.19,-0.05,-0.14,-0.06,-1.25,-70.19,107.06,0.44,-0.13,0.13,2,3
1772399751.718669,9509993,0.05,0.0,0.1,-169.69,-68.87,253.62,1.31,2.56,1.62,-0.01,-0.13,-0.05,-1.25,-70.19,107.06,0.06,-0.13,0.25,2,3
1772399751.761632,9510036,-0.08,0.03,0.11,-169.62,-68.75,253.62,1.56,3.5,2.0,-0.03,-0.13,-0.04,-1.25,-70.19,107.06,-0.06,-0.06,0.19,2,4
1772399751.803035,9510078,-0.02,0.05,0.13,-169.56,-68.56,253.62,0.69,3.12,1.56,-0.07,-0.11,0.0,-1.25,-70.19,107.06,-0.37,-0.56,0.37,2,4
1772399751.844312,9510119,-0.04,0.04,0.11,-169.62,-68.37,253.62,1.31,5.75,0.25,-0.02,-0.05,-0.1,-1.25,-70.19,107.06,-0.44,0.37,0.06,1,4
1772399751.885385,9510160,0.02,0.1,0.08,-169.69,-68.19,253.62,0.81,3.87,-0.13,-0.02,-0.05,-0.1,-1.25,-70.19,107.06,0.31,0.44,0.25,1,4
1772399751.925344,9510200,0.3,0.0,0.08,-169.87,-68.06,253.69,1.94,3.06,-0.75,0.0,-0.12,-0.14,-1.25,-70.19,107.06,0.31,0.13,-0.56,1,3
1772399751.96532,9510240,0.18,-0.04,0.08,-170.0,-68.0,253.81,1.87,1.81,0.62,0.0,-0.12,-0.08,-1.25,-70.19,107.06,0.13,-0.37,-0.19,0,4
1772399752.00772,9510282,0.17,-0.06,0.06,-170.0,-67.94,253.87,1.0,0.5,0.44,-0.03,-0.12,-0.08,-1.25,-70.19,107.06,0.06,-0.5,0.19,1,3
1772399752.050021,9510324,0.01,0.03,0.03,-170.0,-67.94,253.87,-1.0,0.44,-0.25,-0.02,-0.1,0.0,-1.25,-70.19,107.06,-0.13,-0.5,0.37,1,3
1772399752.090841,9510365,0.16,0.05,0.03,-169.94,-67.94,253.81,-0.5,0.25,-0.06,-0.02,-0.06,0.0,-1.25,-70.12,107.06,0.5,-0.5,0.25,1,2
1772399752.130273,9510405,0.09,0.08,0.04,-169.94,-67.87,253.81,1.25,0.75,0.13,-0.03,-0.07,-0.02,-1.25,-70.12,107.06,0.25,-0.75,0.13,1,2
1772399752.170439,9510445,0.13,0.03,0.02,-170.06,-67.87,253.87,2.12,1.5,0.19,-0.03,-0.07,-0.06,-1.25,-70.12,107.06,0.31,-0.81,0.0,1,1
1772399752.213036,9510488,0.14,0.0,0.05,-170.12,-67.81,254.0,1.81,0.31,0.06,-0.01,-0.09,-0.09,-1.25,-70.12,107.06,-0.06,-0.75,-0.13,2,1
1772399752.254656,9510529,0.14,-0.04,0.08,-170.19,-67.81,254.12,1.56,0.13,0.06,-0.03,-0.12,-0.05,-1.25,-70.06,107.06,0.19,-0.69,0.19,2,1
1772399752.296579,9510571,0.09,-0.01,0.06,-170.25,-67.81,254.19,0.88,-0.62,-0.06,-0.01,-0.08,-0.07,-1.25,-70.06,107.06,0.06,-0.69,0.13,2,2
1772399752.337741,9510612,0.06,-0.01,0.09,-170.31,-67.81,254.25,0.69,-0.56,0.13,-0.03,-0.08,-0.07,-1.25,-70.0,107.06,0.06,-0.81,-0.19,2,2
1772399752.379481,9510654,0.13,-0.02,0.12,-170.31,-67.87,254.31,0.75,-0.75,0.44,-0.03,-0.09,-0.06,-1.25,-70.0,107.06,-0.13,-0.69,-0.06,3,3
1772399752.418282,9510693,0.04,-0.01,0.11,-170.31,-67.87,254.31,-0.31,-1.56,0.25,-0.01,-0.12,-0.04,-1.25,-70.0,107.06,0.13,-0.44,-0.5,3,3
1772399752.460949,9510735,0.07,-0.05,0.06,-170.19,-68.0,254.25,-2.87,-4.94,-0.31,-0.03,-0.14,-0.04,-1.25,-70.0,107.06,0.13,-0.19,-0.31,2,4
1772399752.502937,9510777,0.19,0.01,0.01,-170.0,-68.19,254.06,-1.37,-2.31,0.81,-0.05,-0.1,-0.05,-1.25,-70.0,107.06,0.0,-0.19,-0.13,2,4
1772399752.545174,9510820,0.05,0.01,0.04,-169.81,-68.31,254.0,-1.12,-3.81,0.25,0.0,-0.1,-0.05,-1.25,-70.0,107.06,-0.37,0.06,-0.19,2,4
1772399752.584924,9510859,0.04,0.08,0.03,-169.62,-68.5,253.87,-0.94,-3.69,0.81,-0.06,-0.08,-0.05,-1.25,-70.0,107.06,0.69,0.06,0.19,2,4
1772399752.626947,9510901,0.08,0.0,0.07,-169.56,-68.56,253.87,-0.13,-2.44,-0.19,-0.02,-0.14,-0.07,-1.25,-70.0,107.06,-0.19,0.19,-0.31,2,4
1772399752.667338,9510942,0.06,0.01,0.11,-169.5,-68.69,253.87,0.13,-1.62,0.5,0.01,-0.13,-0.06,-1.25,-70.0,107.06,0.06,0.0,0.06,2,4
1772399752.70904,9510984,0.05,-0.03,0.12,-169.44,-68.69,253.87,0.31,-0.62,0.44,-0.02,-0.12,-0.07,-1.25,-70.0,107.06,0.37,0.25,0.06,2,4
1772399752.750561,9511025,0.05,0.03,0.09,-169.44,-68.69,253.87,-1.0,-0.06,-0.06,-0.01,-0.1,-0.02,-1.25,-70.0,107.06,0.31,0.62,0.0,2,3
1772399752.791586,9511066,0.0,0.01,0.1,-169.44,-68.69,253.81,-0.88,0.44,-0.5,-0.03,-0.07,-0.02,-1.25,-70.0,107.06,0.25,0.37,0.13,2,2
1772399752.830507,9511105,0.09,0.04,0.11,-169.44,-68.69,253.81,0.19,1.31,-0.69,-0.02,-0.1,-0.09,-1.25,-70.0,107.06,0.13,0.31,0.0,2,2
1772399752.869919,9511144,0.12,-0.05,0.1,-169.56,-68.62,253.81,0.88,1.62,-0.37,-0.01,-0.1,-0.15,-1.25,-70.06,107.06,0.44,0.62,-0.06,2,1
1772399752.911289,9511186,0.12,0.01,0.06,-169.56,-68.56,253.81,0.06,1.31,0.19,-0.03,-0.15,-0.09,-1.25,-70.06,107.06,0.25,0.31,0.25,2,1
1772399752.952852,9511228,0.04,0.0,0.06,-169.56,-68.56,253.81,0.0,1.19,0.56,-0.02,-0.09,-0.07,-1.25,-70.06,107.06,0.13,0.06,0.19,2,1
1772399752.99422,9511269,0.19,0.02,0.07,-169.5,-68.44,253.81,0.37,1.87,1.37,-0.04,-0.07,-0.03,-1.25,-70.06,107.06,-0.19,-0.13,0.13,2,1
1772399753.03386,9511308,0.16,-0.02,0.09,-169.5,-68.37,253.75,2.25,3.75,1.25,-0.01,-0.07,-0.05,-1.25,-70.06,107.06,-0.56,-0.19,0.31,1,1
1772399753.074134,9511349,-0.01,-0.04,0.08,-169.5,-68.31,253.81,1.12,2.56,0.13,-0.03,-0.08,-0.04,-1.25,-70.06,107.06,-0.44,0.0,-0.06,3,2
1772399753.116275,9511391,0.07,0.04,0.04,-169.56,-68.25,253.87,0.62,-0.13,0.37,-0.01,-0.12,-0.05,-1.25,-70.06,107.06,0.88,0.31,-0.31,2,2
1772399753.158234,9511433,0.15,0.0,0.06,-169.62,-68.19,253.94,0.5,2.5,0.37,-0.03,-0.1,-0.04,-1.31,-70.06,107.12,0.37,0.13,0.0,3,3
1772399753.200204,9511475,0.0,0.07,0.09,-169.69,-68.12,253.87,-0.56,1.0,-0.19,-0.02,-0.13,-0.1,-1.31,-70.06,107.12,0.0,0.13,0.06,3,3
1772399753.241804,9511516,0.2,0.03,0.0,-169.69,-68.12,253.87,-0.44,0.0,0.19,-0.05,-0.11,-0.05,-1.31,-70.06,107.12,0.44,0.56,-0.13,4,3
1772399753.282968,9511558,0.07,0.06,0.06,-169.69,-68.12,253.87,0.44,0.19,-0.25,-0.05,-0.13,-0.06,-1.31,-70.06,107.12,0.06,0.37,0.0,3,4
1772399753.323005,9511598,0.19,-0.08,0.08,-169.69,-68.12,253.87,0.25,0.13,0.75,0.09,-0.41,0.07,-1.25,-70.06,107.12,0.31,-0.13,0.94,4,4
1772399753.365351,9511640,0.0,0.09,0.21,-169.56,-68.06,253.81,-4.19,1.62,-1.56,-0.28,0.22,-0.01,-1.69,-70.12,106.94,-2.31,0.94,6.31,5,4
1772399753.407692,9511682,-0.27,0.34,0.02,-169.87,-68.0,253.75,2.37,6.5,-6.75,0.18,-0.16,0.49,-1.62,-70.12,106.75,-5.56,0.31,-1.81,5,4
1772399753.446629,9511721,0.12,-0.18,-0.19,-171.06,-67.5,254.37,4.87,14.69,-5.81,-0.11,-0.3,0.27,-1.5,-70.06,106.81,1.81,-0.44,-0.81,5,4
1772399753.485784,9511760,0.74,-0.07,-0.19,-171.56,-67.12,254.5,0.44,9.75,-2.0,-0.04,-0.09,-0.49,-1.37,-70.25,106.81,1.56,5.06,-1.37,3,4
1772399753.525702,9511800,0.74,0.0,-0.08,-171.75,-67.0,254.56,0.44,-5.25,0.25,-0.07,-0.24,-0.47,-1.25,-70.37,107.0,3.06,1.0,-1.94,3,3
1772399753.566747,9511841,0.14,0.03,0.12,-171.5,-67.31,254.56,1.69,-13.13,3.31,0.01,-0.11,-0.31,-1.12,-70.44,107.06,1.06,-0.94,-1.0,3,3
1772399753.609027,9511884,-0.09,-0.04,0.18,-171.06,-67.75,254.62,1.56,-10.19,2.81,0.0,-0.03,0.11,-1.06,-70.44,107.12,0.94,-1.19,0.06,3,3
1772399753.648534,9511922,-0.22,-0.04,0.21,-170.81,-68.12,254.62,-1.0,-6.06,-0.37,-0.03,-0.02,0.05,-1.19,-70.37,107.19,2.81,-1.12,-0.37,3,2
1772399753.687407,9511962,0.0,0.02,0.13,-170.81,-68.31,254.56,-2.56,-2.12,-2.12,-0.01,-0.12,-0.07,-1.19,-70.37,107.31,3.44,-0.81,-1.25,3,2
1772399753.726727,9512001,0.06,0.17,0.14,-170.81,-68.37,254.5,-1.25,-1.69,-1.0,-0.11,-0.14,0.0,-1.12,-70.37,107.5,2.75,0.44,-2.06,3,1
1772399753.7676,9512042,0.04,0.08,0.11,-170.75,-68.44,254.5,0.75,-1.75,0.75,-0.05,-0.12,-0.07,-0.88,-70.44,107.69,2.44,1.37,-2.69,4,3
1772399753.807588,9512082,0.18,0.03,0.06,-170.62,-68.5,254.5,1.69,-2.0,1.69,-0.04,-0.14,-0.07,-0.5,-70.5,107.81,0.75,2.37,-3.62,5,3
1772399753.847254,9512122,0.03,0.06,0.05,-170.44,-68.62,254.5,1.19,-2.5,1.75,0.05,-0.12,-0.09,-0.06,-70.56,108.0,2.12,0.37,-3.44,5,3
1772399753.886195,9512161,0.11,0.0,0.1,-170.31,-68.75,254.5,-1.06,-5.37,0.06,0.0,-0.18,-0.02,0.25,-70.69,108.19,0.13,1.62,-3.0,6,4
1772399753.92505,9512200,0.06,-0.21,0.06,-170.19,-68.94,254.5,0.37,-4.81,0.44,0.01,-0.08,0.0,0.56,-70.75,108.25,0.31,1.56,-1.94,6,4
1772399753.96651,9512241,0.0,-0.09,0.14,-170.12,-69.06,254.37,-4.37,-6.5,0.19,-0.02,-0.06,-0.14,0.62,-70.75,108.31,0.56,-0.37,-0.13,6,4
1772399754.006697,9512281,0.0,-0.14,0.13,-169.94,-69.19,254.19,-4.75,-1.69,0.37,0.01,-0.09,0.0,0.62,-70.69,108.31,0.0,-1.5,0.88,6,4
1772399754.047622,9512322,0.35,-0.02,-0.03,-169.62,-69.31,253.94,-4.69,-2.56,0.69,0.04,-0.1,-0.01,0.5,-70.62,108.25,0.13,-0.94,1.31,5,4
1772399754.086663,9512361,0.27,0.23,-0.1,-169.31,-69.44,253.69,-3.69,-4.56,-0.13,-0.03,-0.04,-0.16,0.25,-70.62,108.19,1.06,-0.31,1.69,6,4
1772399754.125614,9512400,0.17,0.22,-0.02,-169.12,-69.62,253.56,-0.62,-6.31,0.37,-0.05,-0.04,0.02,0.19,-70.62,108.19,1.31,-0.44,0.56,5,4
1772399754.166957,9512442,0.02,0.09,0.03,-168.94,-69.94,253.62,2.44,-8.88,-0.37,-0.05,-0.09,0.03,0.25,-70.62,108.31,1.5,0.13,-1.25,3,3
1772399754.207785,9512482,-0.1,-0.06,0.07,-168.81,-70.25,253.81,2.19,-6.5,-0.44,-0.02,-0.22,0.05,0.37,-70.62,108.37,0.56,0.62,-1.69,3,3
1772399754.24857,9512523,-0.1,-0.29,0.2,-168.87,-70.44,253.94,0.31,-1.94,0.81,0.05,-0.24,0.0,0.62,-70.62,108.5,1.06,0.19,-0.94,2,3
1772399754.287962,9512562,-0.21,-0.32,0.2,-168.75,-70.5,253.94,-1.94,2.44,3.25,0.02,-0.2,-0.07,0.75,-70.62,108.56,1.25,0.31,-0.06,2,2
1772399754.326664,9512601,0.5,-0.12,0.11,-168.44,-70.37,253.62,-4.69,1.44,2.0,0.02,-0.06,-0.27,0.69,-70.69,108.56,1.06,0.75,0.88,2,2
1772399754.368045,9512643,0.33,0.23,-0.05,-168.0,-70.5,253.25,-6.5,-5.0,0.0,-0.01,0.0,-0.24,0.62,-70.75,108.62,-0.31,0.5,0.62,3,2
1772399754.408411,9512683,-0.21,0.3,0.09,-167.62,-70.81,253.0,-1.31,-7.87,0.81,0.0,0.03,0.01,0.5,-70.69,108.56,-0.13,-1.5,1.56,2,2
1772399754.448809,9512724,-0.06,0.05,0.19,-167.5,-71.0,253.06,3.69,-3.62,0.31,-0.03,0.01,0.05,0.25,-70.62,108.44,-1.31,-1.31,2.19,2,3
1772399754.488406,9512763,-0.05,-0.18,0.22,-167.56,-71.06,253.25,2.56,-1.44,-0.75,0.0,0.0,-0.11,0.06,-70.62,108.31,-1.5,-0.06,2.0,2,3
1772399754.527623,9512802,0.03,-0.22,0.18,-167.75,-71.12,253.44,1.12,-1.0,-0.81,-0.02,-0.1,-0.04,0.06,-70.62,108.25,-1.94,-0.19,0.94,2,3
1772399754.568618,9512843,-0.02,-0.19,0.13,-167.87,-71.25,253.5,-1.5,0.0,0.37,0.01,-0.14,0.05,0.06,-70.62,108.19,-2.12,-0.19,1.19,2,3
1772399754.609287,9512884,0.02,-0.14,0.08,-167.81,-71.25,253.37,-3.62,1.87,1.62,0.0,-0.07,-0.04,0.06,-70.62,108.06,-2.5,0.0,1.12,2,3
1772399754.650202,9512924,-0.13,-0.13,0.04,-167.56,-71.19,253.12,-6.06,3.37,1.5,-0.14,-0.04,-0.02,-0.06,-70.62,107.87,-3.12,-2.37,4.37,2,3
1772399754.688819,9512963,0.22,0.04,0.03,-167.31,-71.0,252.69,-8.38,6.12,0.56,-0.08,-0.17,0.06,-0.25,-70.56,107.69,-1.12,-1.5,2.37,2,3
1772399754.728121,9513003,0.15,0.11,0.09,-167.06,-70.81,252.25,-7.37,2.75,0.62,-0.25,-0.04,-0.24,-0.37,-70.56,107.37,-3.75,-2.37,5.37,2,4
1772399754.769625,9513044,0.26,0.11,0.06,-166.75,-70.69,251.75,-6.5,3.06,1.81,-0.38,-0.01,-0.2,-0.5,-70.69,107.12,-3.25,1.56,3.19,2,4
1772399754.810265,9513085,0.1,0.26,0.04,-166.31,-70.56,251.37,-3.94,-0.13,1.12,0.01,-0.02,-0.12,-0.69,-70.75,106.94,-0.69,-0.56,2.37,2,3
1772399754.850776,9513125,0.0,0.13,0.07,-166.06,-70.56,251.12,-0.5,0.44,0.56,-0.03,-0.01,0.0,-0.88,-70.69,106.81,-0.25,-1.0,1.75,1,2
1772399754.889277,9513164,0.06,0.22,0.0,-165.94,-70.5,251.06,0.5,1.94,0.69,0.03,-0.11,0.17,-0.94,-70.69,106.81,0.44,-0.81,0.62,2,2
1772399754.928869,9513203,0.07,0.05,-0.09,-166.06,-70.44,251.19,3.31,3.31,-0.62,-0.08,-0.18,0.01,-1.0,-70.62,106.75,-2.56,1.62,1.44,2,2
1772399754.970296,9513245,0.25,0.01,-0.14,-166.37,-70.25,251.31,0.62,3.62,-1.37,-0.01,-0.26,0.17,-1.12,-70.69,106.69,1.87,-0.75,2.37,2,1
1772399755.011529,9513286,0.26,0.01,-0.19,-166.69,-70.12,251.37,-2.44,2.12,-3.56,-0.13,-0.09,-0.26,-1.31,-70.75,106.5,0.88,0.13,3.5,2,1
1772399755.051436,9513326,0.68,0.24,0.0,-166.87,-70.12,251.31,-3.31,-5.06,-3.19,0.01,0.25,-0.89,-1.69,-70.75,106.5,3.25,1.62,1.0,2,1
1772399755.090733,9513365,0.41,0.41,0.18,-167.0,-70.5,251.44,6.06,-15.0,-3.0,0.02,-0.01,-0.24,-1.56,-70.69,106.62,-0.37,-1.5,-2.31,2,1
1772399755.129875,9513404,-0.1,0.12,0.3,-167.31,-71.06,252.12,12.06,-12.5,-1.56,0.09,0.02,0.04,-1.19,-70.62,106.62,-4.37,-0.69,-2.44,2,2
1772399755.171743,9513446,-0.16,-0.31,0.24,-167.69,-71.44,252.87,9.88,-5.94,-0.94,-0.01,-0.07,0.01,-0.94,-70.62,106.62,-1.5,-0.62,-0.94,2,2
1772399755.211939,9513486,-0.24,-0.39,0.13,-168.0,-71.56,253.31,3.06,-1.37,-2.31,-0.05,0.0,-0.09,-0.88,-70.62,106.62,-0.75,-0.56,0.0,2,2
1772399755.252426,9513527,-0.16,-0.21,0.19,-168.56,-71.69,253.62,-0.94,2.31,-2.62,-0.06,-0.03,0.02,-0.88,-70.56,106.62,0.06,-1.19,0.5,2,2
1772399755.291238,9513566,-0.1,0.05,0.2,-168.87,-71.62,253.69,-0.5,4.75,-1.25,0.15,0.01,0.06,-0.88,-70.56,106.62,0.25,-1.12,0.06,2,2
1772399755.330376,9513605,-0.05,0.12,0.1,-169.0,-71.31,253.69,2.37,10.56,1.94,0.03,0.0,0.07,-0.94,-70.5,106.62,0.81,0.69,-0.06,2,2
1772399755.371723,9513646,0.43,0.09,0.07,-169.06,-70.75,253.69,5.12,10.44,2.87,-0.04,-0.04,0.0,-0.94,-70.5,106.69,2.0,-1.5,-0.19,2,2
1772399755.412322,9513687,0.31,0.05,0.02,-169.25,-70.19,253.81,4.5,11.19,1.69,0.01,-0.03,-0.15,-0.94,-70.5,106.69,-1.0,0.94,-0.56,2,2
1772399755.452956,9513728,0.22,0.01,0.04,-169.44,-69.81,253.87,4.25,9.19,1.12,0.0,-0.04,-0.14,-0.81,-70.56,106.69,1.19,-0.56,-0.88,2,2
1772399755.492287,9513767,0.51,-0.08,-0.03,-169.62,-69.5,254.0,1.0,4.69,0.44,0.04,-0.07,-0.18,-0.69,-70.56,106.75,-0.69,0.25,-0.81,3,2
1772399755.5316,9513806,0.01,0.03,0.0,-169.69,-69.25,253.94,-0.13,5.87,0.94,-0.11,-0.08,-0.01,-0.62,-70.5,106.75,-1.0,0.5,-0.88,2,1
1772399755.572739,9513847,0.15,0.09,-0.04,-169.62,-69.0,253.87,-0.5,4.37,1.87,-0.04,-0.04,0.02,-0.5,-70.56,106.81,0.13,-0.06,0.06,2,1
1772399755.613097,9513888,0.13,0.12,-0.04,-169.44,-68.81,253.75,0.75,4.37,2.56,0.0,-0.02,-0.04,-0.5,-70.56,106.81,0.69,0.56,0.0,2,1
1772399755.654044,9513929,0.3,0.13,-0.02,-169.25,-68.69,253.62,1.81,2.06,2.56,-0.02,0.0,-0.02,-0.62,-70.5,106.87,0.75,-0.94,-0.06,2,1
1772399755.693423,9513968,0.1,0.07,-0.01,-169.19,-68.62,253.69,2.37,1.0,0.81,-0.01,0.01,0.05,-0.69,-70.44,106.87,2.19,-2.5,0.19,2,1
1772399755.732778,9514007,0.08,0.08,-0.01,-169.25,-68.56,253.81,2.56,1.0,-0.31,-0.01,-0.02,0.01,-0.69,-70.44,106.87,-0.19,0.19,0.0,2,1
1772399755.773709,9514048,0.28,0.0,-0.03,-169.44,-68.56,254.0,2.37,0.5,-1.19,0.07,-0.02,0.02,-0.75,-70.44,106.94,3.56,-2.25,0.31,3,1
1772399755.814429,9514089,0.12,0.05,0.0,-169.62,-68.56,254.19,3.31,0.31,-1.06,-0.01,-0.04,-0.04,-0.75,-70.44,106.94,0.31,-0.06,-0.06,3,2
1772399755.854782,9514129,0.17,-0.01,0.01,-169.81,-68.5,254.37,2.87,0.62,-0.06,-0.01,-0.04,-0.05,-0.75,-70.44,106.94,0.56,0.0,-0.06,3,2
1772399755.893334,9514168,0.2,0.0,0.04,-169.94,-68.5,254.56,2.81,0.75,0.37,0.0,-0.03,-0.06,-0.75,-70.44,107.0,0.88,0.13,-0.06,3,2
1772399755.932889,9514208,0.08,0.02,0.07,-170.06,-68.5,254.69,2.0,0.25,0.44,0.0,-0.06,-0.08,-0.81,-70.44,107.0,0.69,-0.19,0.13,3,1
1772399755.974245,9514249,0.07,0.01,0.02,-170.12,-68.5,254.75,0.69,0.56,0.31,-0.02,-0.01,-0.07,-0.81,-70.44,107.0,0.56,0.19,0.31,3,2
1772399756.015122,9514290,0.06,0.07,0.04,-170.12,-68.5,254.75,0.0,-0.06,-0.69,-0.05,-0.02,-0.06,-0.81,-70.44,107.0,0.25,0.5,0.19,3,1
1772399756.055682,9514330,0.07,-0.04,0.06,-170.19,-68.5,254.81,0.13,-0.25,-0.44,-0.01,-0.06,-0.08,-0.81,-70.44,107.0,0.5,0.37,-0.25,3,1
1772399756.095621,9514370,0.12,0.0,0.04,-170.19,-68.5,254.81,-0.19,-0.44,0.56,0.0,-0.07,-0.03,-0.81,-70.44,107.0,0.19,0.31,-0.13,3,1
1772399756.135832,9514410,0.02,-0.01,0.02,-170.12,-68.5,254.81,-0.69,-0.25,0.94,-0.03,-0.06,-0.02,-0.75,-70.44,107.0,0.25,0.25,0.0,3,1
1772399756.176975,9514451,0.08,0.08,0.02,-170.0,-68.5,254.69,-1.19,0.56,0.62,-0.04,-0.05,-0.02,-0.75,-70.44,107.0,0.25,-0.13,-0.06,3,1
1772399756.217617,9514492,0.13,0.09,0.02,-169.94,-68.44,254.62,-1.12,1.0,0.62,-0.03,-0.03,-0.03,-0.75,-70.44,107.0,0.19,0.06,0.13,2,0
1772399756.258236,9514533,0.15,0.1,0.0,-169.87,-68.44,254.56,-0.5,0.94,0.0,-0.03,-0.05,-0.01,-0.75,-70.44,107.0,0.06,0.0,-0.19,2,0
1772399756.29771,9514572,0.13,0.06,0.05,-169.87,-68.37,254.5,-0.06,0.75,0.62,-0.02,-0.01,-0.06,-0.75,-70.44,107.0,0.25,-0.06,-0.06,2,0
1772399756.338515,9514613,0.2,0.07,0.02,-169.81,-68.37,254.5,-0.06,-0.25,0.5,-0.04,-0.05,-0.06,-0.75,-70.44,107.0,-0.06,-0.06,-0.06,2,1
1772399756.379207,9514654,0.08,0.09,0.04,-169.81,-68.44,254.5,-0.31,-0.88,-0.19,-0.01,-0.05,-0.06,-0.75,-70.44,107.0,0.13,0.0,0.0,2,0
1772399756.420123,9514694,0.07,0.08,0.04,-169.75,-68.44,254.5,-0.19,-1.06,-0.06,-0.02,-0.04,-0.05,-0.75,-70.44,107.0,0.0,-0.06,-0.06,2,0
1772399756.460627,9514735,0.06,0.06,0.05,-169.75,-68.5,254.5,0.31,-1.06,0.31,-0.03,-0.05,-0.04,-0.75,-70.44,107.0,0.13,0.0,-0.06,2,0
1772399756.499411,9514774,0.06,0.01,0.07,-169.75,-68.5,254.5,0.56,-0.25,0.37,-0.01,-0.05,-0.03,-0.75,-70.44,107.0,0.25,0.31,-0.25,3,2
1772399756.539948,9514815,0.1,0.03,0.05,-169.75,-68.5,254.5,0.19,-0.13,0.44,-0.01,-0.08,-0.07,-0.75,-70.44,107.0,0.0,0.06,-0.19,3,2
1772399756.580794,9514855,0.01,0.07,0.04,-169.75,-68.5,254.5,-0.44,-0.25,0.44,0.0,-0.06,-0.06,-0.75,-70.44,107.0,0.13,-0.25,0.13,3,2
1772399756.62182,9514897,0.12,0.08,0.05,-169.75,-68.5,254.5,-0.56,0.5,0.44,-0.01,-0.11,-0.07,-0.75,-70.44,107.06,0.31,0.13,0.31,3,2
1772399756.664122,9514939,0.09,0.1,0.01,-169.75,-68.44,254.5,-0.56,0.5,0.06,-0.03,-0.03,-0.03,-0.75,-70.44,107.06,0.13,0.31,0.19,3,2
1772399756.706336,9514981,0.12,0.17,0.04,-169.75,-68.44,254.5,0.25,0.56,-0.19,-0.02,-0.04,-0.05,-0.75,-70.44,107.06,0.06,-0.19,0.13,4,3
1772399756.746176,9515021,0.1,0.03,0.08,-169.81,-68.44,254.56,1.5,0.62,-0.13,0.0,-0.06,-0.09,-0.75,-70.44,107.06,0.06,-0.25,0.0,5,3
1772399756.786649,9515061,0.11,0.03,0.05,-169.87,-68.44,254.62,0.94,0.13,0.19,0.0,-0.08,-0.06,-0.75,-70.44,107.06,-0.06,0.0,0.0,5,4
1772399756.827964,9515102,0.13,0.03,0.0,-169.87,-68.44,254.62,-0.5,-0.25,0.19,-0.02,-0.08,-0.09,-0.75,-70.44,107.06,0.0,-0.25,0.25,5,4
1772399756.868505,9515143,0.09,0.1,0.0,-169.87,-68.44,254.62,-0.69,-0.44,-0.25,-0.04,-0.03,-0.02,-0.75,-70.44,107.06,-0.5,-0.5,0.31,5,5
1772399756.909112,9515184,0.19,0.08,0.02,-169.81,-68.44,254.56,-0.31,0.37,0.25,-0.03,-0.02,-0.03,-0.75,-70.44,107.06,-0.25,-0.31,0.37,4,4
1772399756.949177,9515224,0.12,0.06,0.07,-169.81,-68.44,254.56,0.25,-1.0,-0.13,-0.04,-0.04,0.02,-0.75,-70.44,107.06,-0.25,-0.31,0.0,4,4
1772399756.988982,9515264,0.1,0.02,0.04,-169.81,-68.44,254.62,0.37,0.13,0.62,0.0,-0.07,-0.13,-0.75,-70.44,107.06,0.0,0.0,0.0,4,5
1772399757.029672,9515304,0.11,0.02,0.05,-169.75,-68.44,254.56,-0.31,0.13,0.5,-0.05,-0.04,-0.04,-0.75,-70.44,107.06,-0.44,-0.5,0.25,4,5
1772399757.07014,9515345,0.11,0.0,0.06,-169.75,-68.44,254.56,-0.94,0.31,0.19,-0.04,-0.04,-0.07,-0.75,-70.37,107.06,-0.25,-1.06,0.13,4,5
1772399757.109982,9515385,0.09,0.06,0.04,-169.69,-68.44,254.5,-0.69,0.75,1.25,-0.01,-0.03,-0.04,-0.75,-70.37,107.06,0.0,-1.0,0.19,3,5
1772399757.149229,9515424,0.07,0.05,0.08,-169.56,-68.44,254.44,-0.37,0.19,1.5,-0.01,0.0,-0.06,-0.75,-70.31,107.06,-0.19,-0.69,0.06,3,5
1772399757.18947,9515464,0.04,0.06,0.07,-169.44,-68.37,254.31,-0.81,0.25,1.0,-0.02,-0.03,-0.08,-0.75,-70.31,107.0,-0.81,-0.44,-0.19,3,5
1772399757.230323,9515505,0.1,0.07,0.08,-169.31,-68.37,254.31,-0.31,0.88,0.94,-0.01,-0.09,-0.09,-0.75,-70.31,107.0,-0.81,-0.37,-0.37,4,4
1772399757.270549,9515545,0.06,0.08,0.05,-169.25,-68.37,254.25,-0.25,1.12,1.0,-0.03,-0.1,-0.06,-0.69,-70.31,107.0,-1.25,-0.44,-0.25,4,4
1772399757.31107,9515585,0.05,0.09,0.02,-169.12,-68.31,254.19,-0.37,1.62,1.0,-0.02,-0.03,-0.03,-0.69,-70.31,106.94,-0.75,-0.5,-0.13,3,4
1772399757.349841,9515625,0.1,0.08,0.03,-169.12,-68.25,254.19,-0.44,1.5,0.56,0.0,-0.07,-0.06,-0.62,-70.31,106.94,-0.5,-0.44,0.0,3,4
1772399757.389345,9515664,0.12,0.08,0.0,-169.12,-68.19,254.12,-0.62,1.44,0.31,-0.05,-0.05,-0.07,-0.62,-70.31,106.94,-0.13,-0.31,0.06,3,4
1772399757.430609,9515705,0.19,0.11,0.0,-169.12,-68.12,254.12,0.5,0.5,-0.19,-0.03,-0.1,-0.12,-0.62,-70.31,106.94,-0.19,-0.13,0.25,4,4
1772399757.471502,9515746,0.21,0.03,-0.01,-169.12,-68.12,254.12,0.06,-0.37,0.94,-0.01,-0.08,-0.07,-0.62,-70.31,106.94,-0.75,-0.94,-0.25,3,4
1772399757.511141,9515786,0.08,0.06,0.04,-169.0,-68.12,254.06,0.0,0.31,0.94,0.0,-0.09,-0.03,-0.56,-70.25,106.87,-0.81,-0.81,0.06,3,4
1772399757.5517,9515826,0.13,0.09,0.02,-168.94,-68.06,254.06,-1.0,1.12,0.75,-0.04,-0.05,-0.05,-0.56,-70.25,106.87,-0.13,-0.37,0.13,3,4
1772399757.591692,9515866,0.09,0.1,0.02,-168.87,-68.06,254.0,-0.44,0.94,0.31,-0.04,-0.04,-0.03,-0.56,-70.19,106.87,-0.88,-0.75,0.13,3,4
