host_time_s,t_ms,ax1,ay1,az1,roll1,pitch1,yaw1,gx1,gy1,gz1,ax2,ay2,az2,roll2,pitch2,yaw2,gx2,gy2,gz2,emg1,emg2
1772481897.978068,7988854,0.38,0.28,-0.28,-138.25,-81.62,71.56,-34.44,15.31,7.94,0.05,0.33,-0.29,-4.75,-50.88,350.06,-3.44,-4.69,4.62,5,10
1772481897.978341,7988895,0.57,0.87,-0.29,-136.87,-81.06,70.06,-10.00,0.25,11.00,-0.31,0.25,0.24,-4.69,-50.56,349.87,-4.31,-9.56,2.19,5,10
1772481897.978594,7988936,-0.09,-0.31,-0.28,-134.44,-80.81,69.44,0.81,-1.50,14.56,-0.19,0.17,-0.17,-4.50,-50.44,349.81,-3.06,-0.06,-0.94,4,11
1772481897.978844,7988977,0.24,-0.09,-0.20,-131.31,-80.37,68.81,-3.50,-4.62,16.87,-0.02,0.22,-0.32,-4.44,-50.44,349.75,-2.00,-1.87,1.31,4,11
1772481897.979097,7989016,0.14,0.04,-0.11,-127.87,-80.12,68.06,-6.44,-9.06,10.81,0.11,-0.01,-0.17,-4.44,-50.25,349.75,-0.56,-5.44,0.19,3,10
1772481897.979346,7989055,0.24,0.19,-0.15,-124.81,-80.00,67.44,-6.69,-4.94,9.06,0.13,0.10,-0.46,-4.50,-50.06,349.75,1.56,-5.19,1.06,3,11
1772481897.979616,7989096,0.24,0.29,-0.19,-122.62,-79.87,66.87,-6.62,-6.31,3.06,0.10,0.15,-0.21,-4.56,-49.88,349.81,2.94,-8.00,-2.87,4,11
1772481897.979904,7989136,0.00,0.01,-0.18,-121.50,-80.00,66.75,-2.44,-4.81,-4.69,-0.11,0.00,0.11,-4.37,-49.63,349.87,-2.94,-3.69,-2.44,4,9
1772481897.980175,7989177,0.11,-0.09,-0.23,-120.69,-80.19,66.81,-0.06,-6.37,3.19,0.06,-0.12,0.00,-4.06,-49.63,349.94,-4.25,0.88,-3.44,3,6
1772481897.980433,7989216,-0.22,0.07,-0.11,-119.00,-80.19,66.62,-1.50,-4.56,5.25,0.00,-0.07,-0.14,-3.81,-49.69,349.94,-4.19,0.81,-0.44,3,5
1772481897.980688,7989255,0.10,-0.12,0.00,-117.69,-80.06,66.37,-4.06,-2.81,5.25,-0.02,0.00,-0.11,-3.75,-49.69,349.87,-3.12,1.31,-0.44,2,4
1772481897.980932,7989296,0.00,0.24,0.18,-116.31,-80.00,65.94,-7.19,-3.87,-0.19,0.06,-0.03,-0.26,-3.56,-49.75,349.81,-4.19,1.62,0.81,2,3
1772481897.981194,7989337,0.13,0.26,0.10,-115.44,-80.06,65.75,-4.00,-2.81,-1.62,0.01,0.02,-0.08,-3.50,-49.88,349.69,-3.37,2.31,1.37,2,3
1772481897.981462,7989377,0.23,0.29,-0.04,-114.56,-80.12,65.69,0.62,-6.75,-2.94,0.13,0.04,-0.17,-3.44,-50.00,349.50,-4.19,4.00,2.44,4,3
1772481897.981730,7989416,-0.26,0.09,-0.05,-113.19,-80.31,65.94,5.19,-9.13,-0.94,0.03,-0.32,-0.06,-3.50,-50.06,349.37,-2.56,3.62,5.19,4,4
1772481897.981981,7989455,0.55,0.00,-0.29,-111.81,-80.37,66.12,5.62,-4.75,3.75,-0.19,0.11,-0.48,-3.69,-50.25,349.12,-0.13,8.19,5.81,5,4
1772481897.982240,7989497,-0.03,-0.03,-0.05,-110.12,-80.37,66.19,1.50,-8.69,0.31,-0.06,-0.04,-0.10,-4.00,-50.44,349.06,4.69,-0.31,0.50,5,4
1772481897.982511,7989537,-0.13,0.04,0.13,-108.94,-80.44,66.31,-0.19,-1.94,-0.88,-0.06,0.11,-0.09,-4.19,-50.44,349.12,4.50,-2.37,0.19,6,5
1772481897.983090,7989578,-0.10,0.02,0.26,-108.12,-80.56,66.37,2.31,-6.12,-1.37,0.00,0.01,-0.15,-4.31,-50.31,349.25,2.75,-1.25,-1.75,6,6
1772481897.983797,7989617,-0.56,-0.21,0.36,-106.94,-80.62,66.56,2.62,-4.50,0.37,0.09,-0.08,-0.26,-4.31,-50.31,349.37,2.56,0.00,-1.75,6,6
1772481897.984470,7989656,0.02,-0.50,0.15,-106.87,-80.62,66.62,2.44,1.44,2.62,-0.04,-0.05,-0.06,-4.31,-50.38,349.44,0.00,3.00,1.00,6,5
1772481897.985088,7989698,-0.45,-0.56,0.08,-106.87,-80.50,66.44,-3.06,5.19,5.00,0.11,0.14,-0.29,-4.44,-50.63,349.19,-4.75,8.44,6.62,6,6
1772481897.985624,7989738,-0.19,-0.23,0.05,-108.31,-80.12,66.06,-1.19,12.75,7.12,0.05,0.17,0.12,-4.56,-50.81,348.81,-5.56,3.25,5.50,6,6
1772481897.986162,7989779,-0.16,-0.46,-0.07,-110.31,-79.69,65.62,-0.31,11.81,11.50,0.16,0.06,-0.19,-4.56,-51.13,348.44,-9.06,13.06,6.50,5,6
1772481897.986696,7989818,-0.23,-0.24,-0.02,-111.37,-79.19,65.19,0.50,5.37,14.50,0.09,0.06,-0.13,-4.69,-51.56,348.00,-5.37,11.88,7.25,5,5
1772481897.986993,7989857,0.21,0.14,-0.04,-113.25,-78.25,64.37,2.44,20.25,20.06,0.01,0.16,-0.21,-4.81,-51.81,347.75,-3.87,6.69,4.94,3,5
1772481897.987321,7989899,0.11,0.38,-0.08,-115.00,-77.31,63.75,7.87,14.63,17.44,-0.18,0.12,-0.22,-5.06,-52.25,347.37,-3.00,8.81,4.81,3,5
1772481897.987675,7989939,0.55,0.35,-0.27,-116.12,-76.50,63.44,11.81,7.87,16.12,-0.16,0.13,-0.34,-5.25,-52.63,347.12,-3.50,8.69,2.25,3,4
1772481897.988000,7989980,1.24,-0.43,-0.46,-116.25,-75.87,63.31,7.31,-2.06,5.94,0.13,-0.57,-0.07,-5.12,-52.88,347.06,-4.62,2.00,-1.37,3,4
1772481897.988307,7990019,0.08,-0.02,-0.06,-115.12,-75.87,63.44,2.37,-11.50,4.62,0.05,-0.04,-0.50,-5.06,-53.00,346.87,-3.37,7.25,3.06,3,4
1772481897.988583,7990058,0.55,0.22,0.00,-113.56,-75.94,63.50,0.88,-10.25,-0.31,0.06,0.00,0.03,-5.06,-53.00,346.81,0.62,-4.00,-0.94,4,5
1772481897.988942,7990100,-0.21,0.25,0.09,-111.81,-76.37,63.88,1.56,-16.69,-8.19,0.04,-0.24,0.04,-5.06,-53.00,346.87,-0.88,1.31,-0.06,4,5
1772481897.989280,7990140,-0.02,-0.05,-0.08,-110.00,-76.87,64.37,2.56,-12.06,-5.06,0.03,-0.21,0.02,-4.94,-53.06,346.81,-1.44,4.62,1.69,3,5
1772481897.989576,7990180,0.07,-0.21,-0.17,-108.50,-77.12,64.75,2.12,-12.25,-1.75,-0.04,0.00,-0.01,-5.12,-53.31,346.69,-0.31,5.94,3.56,4,5
1772481897.989845,7990219,0.19,-0.13,-0.25,-106.81,-77.37,65.00,1.69,-9.25,-1.00,0.13,0.16,-0.10,-5.25,-53.50,346.50,-2.94,5.31,3.12,4,5
1772481897.990170,7990258,0.18,-0.15,-0.22,-105.44,-77.62,65.25,-0.88,-11.25,-5.00,0.08,0.00,0.10,-5.31,-53.56,346.44,-1.50,3.37,0.00,4,5
1772481897.990554,7990300,0.01,0.03,-0.15,-103.75,-77.94,65.50,-2.12,-11.56,-5.25,0.21,-0.01,-0.08,-5.25,-53.75,346.37,-2.25,2.25,0.37,4,5
1772481897.990920,7990341,-0.07,-0.08,-0.14,-101.94,-78.25,65.75,0.56,-10.69,-5.19,0.12,0.06,0.21,-5.25,-53.88,346.25,-2.62,6.25,1.50,4,5
1772481897.991209,7990381,-0.08,-0.07,-0.19,-100.56,-78.50,66.06,0.00,-9.63,-5.37,0.12,-0.02,0.08,-5.25,-54.13,346.12,-2.94,7.75,1.81,4,6
1772481897.991480,7990420,-0.18,-0.12,-0.16,-98.94,-78.81,66.37,0.50,-11.50,-4.62,0.07,0.06,0.15,-5.31,-54.31,346.00,-4.12,6.56,2.87,5,5
1772481897.991759,7990459,-0.03,-0.09,-0.09,-97.44,-79.00,66.56,-0.50,-6.62,-3.06,0.11,0.07,0.06,-5.31,-54.56,345.81,-3.81,8.44,2.62,5,5
1772481897.992079,7990501,-0.11,-0.09,-0.13,-96.06,-79.19,66.75,-0.88,-6.87,-3.31,0.11,0.00,-0.06,-5.37,-54.94,345.56,-3.37,9.75,2.69,4,5
1772481897.992561,7990541,0.04,-0.03,-0.10,-95.31,-79.31,66.87,-2.12,-4.44,-3.06,0.06,-0.01,0.01,-5.44,-55.19,345.37,-4.12,7.50,2.37,4,5
1772481897.993046,7990582,0.02,0.00,-0.02,-94.31,-79.44,67.00,0.13,-4.06,-3.44,0.04,0.03,-0.14,-5.37,-55.56,345.19,-5.06,10.63,2.00,4,6
1772481897.993386,7990621,0.20,-0.15,-0.02,-93.31,-79.56,67.19,1.25,-6.56,-2.50,0.00,0.00,-0.11,-5.31,-55.94,345.00,-4.56,8.94,1.00,5,6
1772481897.993650,7990660,0.26,-0.19,0.05,-91.50,-79.62,67.37,1.06,-10.56,-1.06,0.02,0.03,-0.43,-5.31,-56.25,344.94,-3.75,7.81,0.56,4,7
1772481897.993904,7990702,0.15,0.03,0.17,-88.81,-79.69,67.50,1.12,-13.50,-1.00,-0.07,0.05,-0.27,-5.19,-56.50,344.87,-2.31,2.94,-1.37,6,7
1772481897.994234,7990742,-0.05,-0.04,0.34,-85.87,-79.75,67.75,3.62,-12.69,-2.81,0.12,0.09,-0.35,-5.06,-56.75,344.75,-5.50,2.94,-0.69,6,8
1772481897.994484,7990783,-0.28,-0.20,0.45,-83.62,-79.75,68.06,4.94,-8.50,-0.56,-0.03,-0.06,-0.10,-4.75,-56.75,344.75,-4.75,3.25,-2.75,6,8
1772481897.994736,7990822,-0.06,-0.01,0.44,-81.81,-79.75,68.31,4.37,-6.44,0.81,0.03,-0.03,-0.41,-4.44,-57.00,344.69,-6.12,7.87,-2.00,6,8
1772481897.994985,7990861,0.11,0.02,0.29,-80.50,-79.69,68.56,5.94,-4.06,-1.12,0.02,-0.15,-0.46,-4.25,-57.19,344.62,-6.44,2.25,-1.25,5,8
1772481898.032735,7990902,0.15,-0.04,0.21,-79.44,-79.75,68.87,6.37,-5.56,-2.06,0.05,-0.04,0.00,-3.87,-57.25,344.44,-7.44,-1.00,0.75,5,8
1772481898.073446,7990943,-0.25,-0.04,0.21,-78.06,-79.75,69.25,4.81,-6.25,-2.00,0.11,0.00,0.11,-3.56,-57.19,344.31,-7.50,-1.31,0.37,5,9
1772481898.113772,7990984,-0.26,-0.13,0.15,-77.44,-79.81,69.50,4.06,0.37,-0.31,0.09,-0.03,0.01,-3.31,-57.19,344.19,-6.44,0.31,0.31,5,8
1772481898.152505,7991023,-0.16,-0.07,0.01,-77.69,-79.81,69.62,3.19,0.94,0.31,0.14,0.06,0.24,-3.12,-57.13,344.06,-6.94,-0.50,0.19,5,9
1772481898.191967,7991062,-0.09,-0.01,-0.07,-78.31,-79.81,69.69,2.44,2.62,0.75,0.16,-0.02,0.20,-2.87,-57.13,344.00,-5.00,-0.06,-0.50,5,9
1772481898.233566,7991103,-0.03,0.00,-0.22,-79.12,-79.81,69.69,1.06,2.94,0.88,0.16,-0.06,0.23,-2.56,-57.00,343.87,-3.44,-0.75,-0.81,4,8
1772481898.274038,7991144,0.05,0.04,-0.26,-80.12,-79.75,69.62,-0.62,3.56,2.50,0.15,-0.12,0.23,-2.44,-56.94,343.81,-2.56,1.25,1.94,5,7
1772481898.314654,7991184,0.15,0.22,-0.40,-81.25,-79.69,69.50,-0.88,2.25,0.19,0.14,-0.11,0.16,-2.50,-56.94,343.69,-2.94,1.19,2.62,4,7
1772481898.354868,7991225,-0.05,0.22,-0.27,-82.12,-79.69,69.37,0.19,0.50,-1.12,0.00,-0.09,0.49,-2.44,-56.88,343.50,-4.19,-0.19,2.44,4,6
1772481898.393803,7991264,0.00,-0.02,-0.42,-83.00,-79.69,69.44,1.19,2.94,-1.44,0.22,-0.01,0.21,-2.37,-57.06,343.25,-8.25,6.94,3.62,5,6
1772481898.434767,7991305,-0.33,-0.01,-0.21,-84.06,-79.81,69.50,1.00,3.31,-0.88,0.04,0.00,0.42,-2.25,-57.00,343.00,-6.37,1.19,2.37,5,6
1772481898.475692,7991345,-0.07,-0.19,-0.11,-85.19,-79.81,69.50,-0.56,5.56,0.81,0.19,0.04,0.00,-2.12,-57.31,342.75,-6.81,12.00,1.56,5,5
1772481898.516662,7991386,0.11,-0.10,-0.08,-86.25,-79.81,69.37,-0.88,4.31,0.88,0.08,0.00,-0.08,-2.00,-57.69,342.56,-5.37,8.94,1.50,5,5
1772481898.555696,7991425,0.08,-0.04,-0.11,-87.25,-79.75,69.31,-0.50,4.56,2.25,0.00,0.08,-0.12,-1.94,-58.00,342.44,-2.94,7.12,0.75,5,4
1772481898.594360,7991464,-0.04,0.07,0.04,-88.31,-79.69,69.19,0.75,4.81,2.50,-0.01,0.04,0.00,-1.94,-58.25,342.31,-1.75,4.31,0.88,6,4
1772481898.635657,7991505,0.28,-0.04,-0.03,-89.37,-79.62,69.19,2.37,3.69,-0.75,-0.07,0.12,-0.12,-1.94,-58.44,342.19,-3.75,7.87,2.50,6,4
1772481898.676069,7991546,0.06,-0.01,-0.03,-89.94,-79.69,69.31,4.25,0.75,-1.69,0.00,0.08,-0.21,-1.94,-58.75,342.00,-5.56,6.75,2.00,5,4
1772481898.716264,7991586,0.12,-0.22,0.03,-90.44,-79.75,69.56,6.44,2.19,-1.87,-0.03,0.01,-0.14,-1.81,-59.00,341.75,-8.13,6.94,2.00,5,4
1772481898.755344,7991625,0.20,-0.31,0.01,-90.94,-79.87,69.87,5.50,0.75,-1.75,0.08,0.00,-0.17,-1.56,-59.31,341.50,-9.88,8.69,2.12,6,4
1772481898.794249,7991664,0.07,-0.36,0.06,-91.06,-80.00,70.25,5.87,-1.44,-0.69,0.01,0.13,-0.09,-1.44,-59.56,341.25,-10.94,8.75,2.00,7,5
1772481898.835701,7991706,-0.18,-0.25,0.13,-90.56,-80.00,70.50,5.37,-3.31,2.69,0.01,0.00,0.06,-1.00,-60.00,340.87,-10.13,8.56,-0.44,10,4
1772481898.876619,7991746,-0.24,-0.36,0.17,-90.00,-79.94,70.62,3.94,-0.69,6.81,-0.03,0.07,0.01,-0.62,-60.44,340.69,-9.00,11.75,-0.88,13,4
1772481898.917357,7991787,0.12,-0.35,0.18,-89.81,-79.75,70.56,0.00,-1.12,9.44,-0.01,0.24,-0.34,-0.19,-60.88,340.56,-5.75,10.75,-2.94,15,4
1772481898.956364,7991826,0.13,0.18,0.26,-89.12,-79.37,70.12,-2.69,-4.75,8.31,-0.12,0.10,-0.15,0.19,-61.06,340.69,-1.81,1.50,-6.19,18,4
1772481898.995555,7991865,0.09,0.08,0.39,-87.94,-79.12,69.87,-0.56,-6.56,5.12,-0.03,-0.09,-0.18,0.56,-61.06,340.87,-1.62,1.62,-5.25,20,4
1772481899.036857,7991907,0.03,0.15,0.39,-86.31,-78.81,69.69,0.88,-5.12,7.00,0.01,-0.23,0.00,1.12,-61.13,341.06,-1.75,-1.06,-4.50,21,4
1772481899.077585,7991947,-0.12,0.15,0.35,-84.94,-78.50,69.44,1.00,-4.00,6.87,0.01,-0.27,0.21,1.62,-61.00,341.25,-1.19,-2.19,-5.31,21,4
1772481899.118629,7991988,-0.10,0.04,-0.19,-84.50,-78.19,69.19,-1.44,1.19,6.56,0.01,-0.40,0.12,2.00,-61.00,341.50,0.25,3.37,-4.37,20,5
1772481899.157959,7992028,0.45,-0.19,-0.71,-84.69,-78.00,68.69,-14.50,-0.19,4.44,-0.04,-0.47,0.10,2.37,-61.06,341.69,2.25,-0.37,0.75,20,5
1772481899.197235,7992067,1.05,-0.29,-0.88,-83.19,-77.94,67.94,-27.12,-8.38,-3.25,0.03,-0.27,0.12,2.62,-61.13,341.56,-6.06,1.62,3.25,21,4
1772481899.237893,7992108,0.45,-0.05,-0.69,-78.25,-78.31,67.25,-45.88,-23.75,-22.31,0.17,0.07,0.20,2.69,-61.19,341.19,-10.63,0.13,5.44,18,4
1772481899.278648,7992148,0.11,-0.01,-0.16,-71.12,-79.00,66.50,-50.75,-16.19,-23.94,0.02,-0.07,0.03,2.62,-61.25,340.56,-15.00,2.56,10.63,16,4
1772481899.318638,7992189,-0.37,0.21,0.24,-64.06,-79.56,65.75,-46.75,-18.31,-22.75,0.04,0.22,0.18,2.56,-61.31,339.81,-16.94,1.06,8.13,15,4
1772481899.358108,7992228,-0.36,0.37,0.44,-57.38,-80.00,65.12,-35.19,-9.31,-15.06,-0.02,0.31,-0.01,2.62,-61.50,339.12,-14.13,4.69,5.19,12,4
1772481899.397030,7992267,-0.40,0.20,0.69,-53.06,-80.19,64.62,-24.69,-8.44,-9.88,-0.02,0.18,-0.06,2.69,-61.63,338.81,-11.88,2.62,3.81,12,4
1772481899.438487,7992308,-0.40,0.20,0.66,-50.13,-80.19,64.31,-10.38,-5.37,-3.94,-0.04,0.17,0.01,2.81,-61.69,338.31,-8.75,1.31,2.44,12,4
1772481899.478977,7992349,-0.29,0.27,0.50,-48.44,-80.00,64.12,1.00,-2.19,-0.56,0.14,0.27,-0.29,3.00,-61.88,338.06,-8.50,2.25,0.19,12,3
1772481899.519099,7992389,-0.32,0.06,0.48,-48.00,-79.81,64.19,7.75,4.25,2.62,0.01,0.10,0.05,3.31,-61.75,337.94,-4.94,-3.50,-3.87,13,3
1772481899.558457,7992428,-0.60,0.32,0.34,-49.69,-79.75,64.37,13.44,7.75,5.12,0.26,-0.06,0.24,3.75,-61.63,337.94,-4.94,-2.87,-2.62,14,3
1772481899.597471,7992467,-0.91,0.51,0.38,-53.69,-79.87,64.75,26.19,19.69,7.81,0.14,0.16,0.55,4.00,-61.56,337.94,-4.81,-0.44,-2.75,13,3
1772481899.638790,7992509,-0.90,0.62,0.19,-61.81,-80.19,65.44,40.94,33.75,11.13,0.12,0.19,0.40,4.44,-61.50,337.94,-5.87,2.25,-2.06,13,3
1772481899.679550,7992550,-0.63,0.12,0.10,-73.00,-80.31,66.50,54.81,42.44,15.38,-0.13,0.07,0.63,4.75,-61.19,337.94,-3.06,-3.25,-7.25,13,3
1772481899.720282,7992590,0.46,-0.39,-0.47,-85.75,-80.00,67.62,52.50,44.00,15.13,0.10,0.11,0.26,5.25,-61.38,338.19,0.50,6.87,-6.75,11,3
1772481899.759264,7992629,1.11,-0.77,-0.98,-95.75,-79.44,68.69,40.69,25.00,10.31,0.07,0.00,-0.17,5.81,-61.56,338.56,1.37,7.44,-8.81,10,3
1772481899.798354,7992668,0.58,-0.44,-0.78,-101.25,-78.94,69.62,31.87,20.37,7.75,0.10,-0.19,0.13,6.25,-61.75,338.81,2.25,-0.06,-5.31,10,3
1772481899.839795,7992710,0.29,-0.30,-0.41,-105.75,-78.50,70.19,18.56,21.37,7.56,-0.01,-0.11,0.58,6.62,-61.75,339.06,0.31,3.44,-3.12,9,2
1772481899.880721,7992751,0.47,-0.13,-0.64,-109.62,-78.00,70.37,12.19,16.62,5.81,-0.04,-0.10,-0.01,7.00,-62.13,339.31,2.31,9.56,-4.94,9,3
1772481899.921005,7992791,0.45,0.07,-0.63,-111.87,-77.62,70.50,7.25,9.38,4.25,-0.04,-0.16,0.17,7.37,-62.44,339.62,3.56,8.88,-6.25,8,3
1772481899.959998,7992830,0.55,0.02,-0.66,-113.81,-77.25,70.50,5.62,3.56,3.94,-0.14,-0.19,-0.09,7.87,-62.81,340.00,2.50,10.75,-6.50,6,3
1772481899.999396,7992869,0.56,0.03,-0.45,-114.25,-77.06,70.50,4.62,-6.56,2.31,-0.09,-0.24,-0.43,8.19,-63.06,340.12,-3.50,8.00,-1.87,6,2
1772481900.044582,7992911,0.60,-0.25,-0.38,-113.19,-77.12,70.75,1.25,-17.94,1.50,-0.18,-0.23,-0.27,8.63,-63.31,340.00,-5.87,3.69,0.13,6,2
1772481900.081529,7992951,0.74,-0.12,-0.30,-110.12,-77.31,70.87,-5.00,-29.69,1.87,-0.06,-0.07,-0.29,8.94,-63.50,339.87,-4.87,1.37,1.25,5,2
1772481900.122501,7992992,-0.41,0.24,0.32,-105.19,-77.56,70.81,-4.37,-19.94,2.75,0.15,-0.09,0.03,9.00,-63.50,339.75,-2.31,-1.75,1.75,5,3
1772481900.161535,7993031,-0.37,0.33,0.58,-102.25,-77.62,70.69,-1.62,-10.31,2.62,0.01,-0.05,0.07,9.00,-63.56,339.69,0.06,2.19,-0.25,5,2
1772481900.200554,7993070,-0.33,0.21,0.45,-100.37,-77.62,70.62,1.19,-6.87,1.12,-0.17,-0.07,-0.08,9.00,-63.63,339.75,1.19,1.56,0.56,5,3
1772481900.241680,7993112,-0.22,0.15,0.23,-99.25,-77.56,70.75,4.50,-2.00,0.62,-0.19,-0.03,0.02,8.81,-63.69,339.75,2.50,-0.88,1.50,4,3
1772481900.282081,7993152,0.02,0.11,0.02,-99.06,-77.56,70.87,5.87,-1.19,0.75,-0.07,-0.02,-0.01,8.63,-63.63,339.75,2.50,-1.12,1.25,3,2
1772481900.322707,7993192,0.09,0.00,-0.07,-98.94,-77.56,71.12,4.94,-2.37,-2.37,0.00,-0.09,-0.02,8.44,-63.56,339.69,0.69,-3.50,1.62,4,2
1772481900.361780,7993231,0.07,-0.21,-0.20,-98.87,-77.69,71.44,2.25,-1.94,-3.31,0.05,-0.05,0.03,8.19,-63.50,339.62,-0.13,-2.62,2.94,4,3
1772481900.400259,7993270,0.24,-0.14,0.00,-98.62,-77.81,71.56,0.69,-1.19,-2.00,0.01,0.03,0.00,8.00,-63.38,339.50,0.19,0.00,3.50,4,3
1772481900.442025,7993312,0.00,-0.17,-0.13,-98.81,-77.87,71.69,1.37,0.37,0.44,-0.05,0.00,0.17,7.69,-63.44,339.31,1.50,-1.87,2.69,4,4
1772481900.482977,7993353,-0.30,0.00,-0.15,-98.75,-77.81,71.62,0.75,0.31,2.44,-0.15,0.00,0.27,7.44,-63.44,339.31,1.25,1.00,2.12,4,4
1772481900.523263,7993393,-0.30,0.14,-0.17,-98.94,-77.69,71.56,2.37,1.81,2.00,-0.14,0.03,0.18,7.19,-63.56,339.25,2.87,3.25,2.25,4,4
1772481900.562348,7993432,-0.05,0.04,0.12,-99.19,-77.62,71.56,2.12,-0.56,2.19,0.13,0.03,-0.09,7.06,-63.56,339.25,1.94,-3.19,-0.69,4,5
1772481900.601175,7993471,0.41,-0.10,0.05,-99.69,-77.56,71.69,4.56,4.81,0.31,0.17,0.00,-0.18,7.00,-63.50,339.31,1.19,1.75,0.81,3,5
1772481900.642879,7993513,-0.02,0.00,-0.09,-100.69,-77.50,71.75,3.50,4.19,-0.62,-0.09,-0.02,0.24,6.81,-63.38,339.25,0.37,-5.87,0.94,3,5
1772481900.683740,7993554,-0.01,-0.05,-0.26,-101.69,-77.50,71.94,3.19,5.94,-1.25,-0.03,0.06,0.23,6.69,-63.25,339.19,0.19,-2.31,1.25,3,5
1772481900.724364,7993594,0.48,-0.21,-0.21,-102.94,-77.56,72.06,2.19,4.00,-4.50,0.08,0.00,0.21,6.62,-63.13,339.12,-0.13,-2.62,1.25,3,5
1772481900.763610,7993633,0.63,-0.38,-0.37,-103.37,-77.75,72.37,-0.81,-4.87,-6.37,0.02,0.01,0.06,6.44,-63.13,339.06,-0.75,-0.75,2.19,3,5
1772481900.802785,7993672,-0.39,-0.01,-0.48,-101.75,-78.12,72.56,-5.31,-14.75,-6.06,-0.14,-0.01,0.23,6.37,-63.06,339.00,0.25,-3.56,1.06,1,5
1772481900.843999,7993714,-0.73,0.04,-0.02,-99.56,-78.31,72.62,-2.25,-1.19,-0.81,0.12,0.05,0.25,6.25,-62.94,339.00,1.44,-2.00,-0.19,1,6
1772481900.884048,7993754,0.48,0.10,0.00,-100.06,-78.31,72.56,0.88,5.12,-3.06,-0.04,0.00,0.09,6.12,-62.75,339.00,1.37,0.25,0.06,1,6
1772481900.925544,7993795,0.70,-0.19,-0.40,-100.87,-78.44,72.75,2.12,-4.75,-3.56,0.04,-0.02,-0.26,6.19,-63.00,339.12,1.62,7.31,-0.94,3,7
1772481900.964705,7993834,0.08,-0.24,-0.40,-100.00,-78.62,73.06,2.25,-5.75,-2.31,-0.11,-0.07,0.19,6.25,-63.00,339.12,-1.25,-3.75,-0.88,2,7
1772481901.003767,7993873,0.09,-0.15,-0.21,-98.94,-78.75,73.19,-1.31,-9.31,-1.06,-0.05,-0.02,0.09,6.31,-62.94,339.12,-1.06,-1.81,-1.00,3,7
1772481901.044802,7993915,-0.52,0.22,0.12,-96.75,-78.87,73.25,-2.44,-11.19,-1.37,0.07,0.01,0.10,6.44,-62.88,339.12,-1.50,-1.75,-0.62,3,8
1772481901.085888,7993956,0.00,0.10,-0.10,-95.81,-78.94,73.31,1.69,-2.94,-1.56,-0.15,-0.01,0.11,6.56,-62.81,339.19,0.25,0.37,-2.44,3,8
1772481901.126789,7993997,0.26,-0.35,-0.16,-95.25,-79.00,73.50,3.00,-3.00,-1.37,-0.12,-0.09,-0.24,6.69,-62.94,339.25,2.31,7.19,-1.62,4,8
1772481901.166116,7994036,0.11,-0.26,-0.17,-94.69,-79.00,73.62,-0.88,-4.31,0.88,0.00,-0.05,-0.17,6.69,-62.94,339.31,0.25,-3.75,-0.44,5,8
1772481901.205357,7994075,-0.06,-0.13,-0.08,-93.81,-79.00,73.56,-2.69,-3.87,1.25,0.03,-0.03,0.18,6.69,-62.75,339.31,-1.25,-3.69,0.13,6,8
1772481901.246092,7994116,0.01,-0.04,-0.15,-93.19,-79.00,73.44,-4.06,-3.25,2.56,0.01,0.00,0.25,6.75,-62.75,339.25,-2.25,-0.44,-0.25,6,7
1772481901.286668,7994156,-0.08,0.05,-0.13,-92.62,-78.87,73.19,-1.44,-1.00,2.44,-0.02,0.01,0.13,6.81,-62.75,339.19,-2.31,2.06,-0.19,6,7
1772481901.326786,7994197,0.02,-0.03,-0.14,-92.44,-78.81,73.06,-0.81,-0.69,3.06,-0.01,0.01,0.08,6.94,-62.88,339.19,-1.87,2.87,-0.44,5,7
1772481901.365634,7994235,-0.11,0.11,-0.11,-92.25,-78.69,72.94,-0.75,-1.06,3.25,0.00,0.03,0.29,7.06,-62.94,339.19,-0.25,2.00,-1.62,6,6
1772481901.404541,7994275,0.08,0.07,-0.11,-92.44,-78.56,72.81,2.19,1.12,2.87,-0.04,-0.01,0.13,7.12,-63.00,339.25,-0.44,3.44,-1.37,5,7
1772481901.446471,7994316,0.21,-0.08,-0.18,-92.56,-78.44,72.87,3.12,-0.81,1.94,-0.07,-0.04,-0.07,7.31,-63.19,339.19,-4.06,3.56,0.37,6,7
1772481901.486954,7994357,0.09,-0.34,-0.11,-92.12,-78.44,72.94,0.62,-4.81,2.31,-0.05,-0.04,-0.05,7.50,-63.25,339.06,-6.12,1.37,1.94,6,7
1772481901.527747,7994397,-0.04,-0.09,-0.06,-91.06,-78.37,72.87,-4.37,-6.25,4.19,-0.08,0.08,0.15,7.50,-63.25,338.81,-3.94,-1.00,1.62,5,7
1772481901.566263,7994436,0.14,0.16,-0.14,-89.87,-78.19,72.56,-5.37,-3.75,4.25,0.09,0.09,0.00,7.56,-63.31,338.81,-1.37,2.62,-0.06,5,7
1772481901.605258,7994475,-0.02,0.20,-0.14,-88.81,-78.06,72.31,-4.81,-6.00,1.56,-0.11,0.04,0.19,7.62,-63.31,338.81,0.06,1.00,-1.69,4,7
1772481901.647340,7994517,0.05,-0.02,-0.01,-87.62,-78.06,72.19,-1.87,-5.50,1.19,-0.05,-0.10,-0.03,7.75,-63.38,338.81,-1.81,1.87,-0.19,4,7
1772481901.687823,7994558,0.11,-0.15,-0.07,-86.50,-78.00,72.12,-3.94,-7.81,2.25,-0.07,-0.08,0.01,7.87,-63.44,338.75,-3.44,0.25,0.50,4,7
1772481901.728428,7994598,-0.19,0.05,0.05,-85.12,-77.87,71.87,-4.62,-4.94,2.75,-0.01,0.05,0.10,8.00,-63.44,338.69,-2.69,-0.37,-0.31,4,6
1772481901.786332,7994637,-0.06,0.14,0.03,-84.31,-77.75,71.69,-3.81,-2.69,1.81,-0.04,-0.04,0.15,8.13,-63.38,338.62,-1.62,0.56,-1.31,3,6
1772481901.806266,7994676,0.00,0.06,0.01,-84.12,-77.69,71.44,-3.50,1.12,2.25,0.00,-0.01,0.16,8.25,-63.44,338.69,-1.19,1.31,-1.31,4,6
1772481901.847638,7994718,0.00,0.04,-0.06,-84.25,-77.56,71.25,-1.75,0.81,2.81,-0.03,0.00,0.13,8.50,-63.50,338.69,-0.94,1.94,-1.50,2,5
1772481901.888359,7994758,0.02,0.09,-0.15,-84.37,-77.44,71.12,-1.12,0.25,3.06,-0.06,0.01,0.12,8.69,-63.56,338.75,-0.94,1.94,-1.87,2,5
1772481901.929016,7994799,0.07,-0.06,-0.24,-84.44,-77.37,71.00,-0.62,-1.87,2.19,-0.05,0.03,0.06,8.88,-63.63,338.75,-2.00,2.00,-1.50,2,4
1772481901.968093,7994838,0.13,-0.13,-0.17,-84.12,-77.25,70.87,-1.56,-3.37,3.37,-0.02,0.01,0.05,9.06,-63.63,338.81,-1.87,0.31,-1.56,3,4
1772481902.006834,7994877,-0.24,0.00,0.00,-83.44,-77.12,70.69,-1.37,-3.62,3.69,0.08,0.03,0.13,9.19,-63.63,338.81,-1.75,-0.19,-0.94,3,4
1772481902.048367,7994919,-0.25,-0.02,0.07,-83.56,-76.94,70.50,0.50,2.25,5.75,0.07,0.07,0.27,9.38,-63.63,338.75,-2.00,1.50,-1.19,3,3
1772481902.089427,7994959,-0.36,-0.16,0.03,-84.62,-76.75,70.31,-0.06,9.56,5.37,-0.05,0.09,0.25,9.50,-63.69,338.81,-1.50,4.00,-2.00,3,3
1772481902.130091,7995000,-0.08,-0.15,-0.08,-86.69,-76.62,70.00,-0.94,15.00,3.06,-0.03,0.09,0.09,9.81,-63.81,338.81,-1.81,4.94,-2.44,3,3
1772481902.169143,7995039,-0.42,0.02,0.12,-89.19,-76.44,69.69,0.44,15.44,4.87,-0.24,-0.07,0.54,10.06,-63.81,338.87,-3.25,-1.25,-2.31,3,4
1772481902.207957,7995078,0.00,0.01,-0.02,-91.81,-76.19,69.44,5.12,15.88,7.69,-0.06,-0.03,0.02,10.31,-63.88,338.87,-5.31,7.94,-1.31,3,4
1772481902.249662,7995119,0.28,-0.26,-0.24,-94.19,-75.81,69.12,4.69,11.94,9.94,-0.01,-0.12,-0.10,10.81,-64.19,338.75,-7.31,4.44,0.31,4,4
1772481902.289983,7995160,0.24,0.02,-0.12,-95.69,-75.44,68.81,3.44,10.38,7.37,0.14,0.00,0.02,11.06,-64.19,338.50,-9.19,-2.50,0.94,5,4
1772481902.330637,7995201,0.26,0.20,-0.03,-97.37,-75.12,68.56,7.50,14.06,6.25,0.02,-0.08,0.10,11.19,-64.00,338.19,-11.13,-6.06,3.87,6,5
1772481902.369649,7995240,0.05,0.19,-0.10,-99.62,-74.75,68.50,10.81,13.44,6.12,0.03,-0.10,0.38,11.19,-63.88,337.69,-10.13,-2.44,3.19,7,5
1772481902.408664,7995279,0.19,-0.08,-0.37,-101.81,-74.44,68.69,14.63,12.25,6.19,-0.05,0.08,0.22,11.31,-63.88,337.37,-13.00,2.31,5.00,7,4
1772481902.450183,7995320,0.41,-0.68,-0.75,-103.56,-74.12,68.87,10.56,9.06,6.00,-0.26,0.09,0.00,11.25,-64.06,336.81,-10.44,4.25,8.00,7,4
1772481902.492362,7995362,1.18,-1.62,-1.22,-103.87,-73.94,68.62,-16.44,-6.81,1.62,-0.43,-0.20,-0.29,11.00,-64.25,336.19,-11.56,6.12,12.19,8,4
1772481902.533962,7995404,1.79,-1.83,-1.25,-100.37,-74.06,67.62,-60.19,-38.50,-8.56,-0.20,0.01,-0.91,10.25,-64.50,335.25,-12.88,-1.25,17.50,9,4
1772481902.575639,7995445,1.00,-0.44,-0.15,-91.00,-74.87,65.75,-100.31,-53.19,-25.25,-0.17,-0.38,-0.20,9.06,-64.19,334.19,-16.69,-14.69,23.19,11,6
1772481902.614341,7995484,-0.55,1.69,1.28,-74.19,-76.00,63.06,-110.50,-65.50,-37.06,0.03,-0.32,0.17,7.37,-63.50,332.56,-19.94,-26.19,30.87,13,5
1772481902.653725,7995523,-1.49,2.25,1.82,-61.06,-76.69,61.94,-69.19,-33.75,-37.00,0.38,-0.01,0.47,5.69,-62.63,330.81,-21.81,-21.12,29.75,13,6
1772481902.695142,7995565,-0.79,0.84,0.92,-55.88,-77.25,61.69,-35.56,5.44,-27.25,-0.16,0.00,0.54,4.50,-62.13,329.44,-15.38,-12.38,22.62,14,6
1772481902.735703,7995606,-0.57,0.47,0.35,-53.13,-78.31,61.81,-10.63,4.50,-18.44,0.20,-0.22,0.35,3.62,-62.25,328.56,-6.44,4.44,15.50,14,6
1772481902.776441,7995646,0.11,-0.08,-0.16,-52.63,-78.94,62.25,2.62,10.56,-11.19,0.24,-0.30,0.16,2.87,-62.19,327.81,-7.94,-2.37,15.63,13,6
1772481902.815193,7995685,0.32,-0.15,-0.41,-53.13,-79.31,62.69,4.75,4.75,-5.44,0.07,-0.27,0.03,2.31,-62.25,327.12,-7.69,6.12,14.13,13,7
1772481902.854471,7995724,0.40,-0.08,-0.26,-53.88,-79.69,62.75,-3.56,8.69,-3.69,0.04,0.13,-0.08,1.69,-62.50,326.44,-6.19,3.94,10.50,13,7
1772481902.895744,7995766,0.29,0.22,-0.21,-54.31,-79.94,62.69,-11.63,7.00,-7.37,0.07,0.12,0.06,1.31,-62.69,325.94,-6.00,6.81,8.81,13,9
1772481902.936472,7995807,0.29,0.62,-0.27,-53.56,-80.56,62.69,-10.19,6.62,-15.69,-0.12,-0.03,0.05,0.88,-62.88,325.69,1.44,6.56,4.31,13,9
1772481902.978686,7995848,-0.01,-0.16,0.05,-51.75,-81.06,63.13,0.88,-1.62,-11.19,-0.02,-0.17,-0.02,0.56,-63.19,325.50,-0.75,4.50,3.75,11,7
1772481903.017391,7995887,-0.28,-0.44,0.15,-49.94,-81.19,63.44,0.19,-4.75,-5.50,0.09,-0.19,0.00,0.37,-63.31,325.25,-3.00,-0.69,4.12,11,8
1772481903.056256,7995926,-0.24,-0.46,0.27,-48.19,-81.19,63.63,-2.44,-3.12,-4.00,0.08,-0.02,0.00,0.19,-63.31,325.00,-3.62,2.19,3.44,11,9
1772481903.097177,7995967,0.10,-0.02,0.13,-47.81,-81.25,63.44,-7.00,3.62,3.44,0.07,0.15,-0.19,0.13,-63.44,325.00,4.81,3.62,-1.87,10,10
1772481903.138798,7996009,-0.17,0.20,0.07,-48.94,-81.25,63.00,-11.44,4.37,2.56,0.17,-0.10,-0.04,0.19,-63.44,325.44,8.44,0.00,-6.19,9,11
1772481903.180587,7996051,0.39,0.50,-0.18,-49.44,-81.44,62.50,-15.50,5.94,-2.31,-0.07,0.00,0.65,0.50,-63.38,325.87,6.06,4.62,-8.63,9,10
1772481903.220539,7996090,-0.10,0.80,-0.06,-48.38,-81.69,62.31,-7.87,1.69,-10.38,-0.01,0.20,0.05,0.88,-63.75,326.31,5.31,7.81,-4.62,9,10
1772481903.259499,7996129,0.04,-0.02,-0.06,-46.50,-82.12,62.81,6.37,2.62,-12.88,-0.11,-0.18,-0.12,0.88,-64.00,326.44,-0.81,6.87,2.12,9,10
1772481903.301865,7996171,-0.20,-0.17,0.10,-45.06,-82.31,63.56,13.69,-3.75,-4.87,-0.03,-0.22,-0.11,0.69,-64.12,326.19,-3.75,-2.56,5.69,8,8
1772481903.343048,7996213,-0.39,-0.29,0.32,-45.69,-82.12,64.12,21.44,-2.06,7.81,0.01,0.01,-0.09,0.25,-63.94,325.87,0.44,-4.94,4.75,7,8
1772481903.383948,7996254,-0.12,-0.05,0.30,-48.63,-81.81,64.44,18.56,3.50,10.75,0.13,0.06,0.07,0.00,-63.69,325.81,4.31,-5.69,1.25,7,8
1772481903.423448,7996294,-0.39,0.16,0.41,-52.38,-81.75,64.69,19.00,9.94,8.88,0.06,0.22,-0.13,-0.25,-63.44,326.00,3.62,-9.00,1.06,6,7
1772481903.462777,7996333,0.10,0.03,0.16,-57.94,-81.75,65.00,21.56,16.62,8.25,-0.16,-0.04,0.25,-0.31,-63.06,326.00,-0.06,-10.31,-0.75,5,6
1772481903.504639,7996374,-0.07,-0.23,0.00,-63.31,-81.87,65.37,18.56,15.25,5.44,0.03,0.01,-0.11,-0.19,-62.88,326.00,-0.06,-0.50,-1.37,5,4
1772481903.544884,7996415,0.22,-0.33,0.00,-68.12,-82.00,65.75,11.56,15.69,2.81,0.08,0.04,-0.16,-0.19,-62.81,326.00,0.44,-4.25,0.37,6,5
1772481903.585777,7996456,0.58,-0.17,-0.24,-72.25,-82.06,65.87,3.06,9.56,0.69,0.08,0.00,-0.04,-0.25,-62.56,326.12,3.37,-5.31,-0.81,8,5
1772481903.625479,7996495,0.58,-1.00,-0.51,-73.44,-82.19,65.81,-15.75,0.13,-6.00,0.20,-0.08,0.06,-0.25,-62.38,326.25,4.44,-4.25,-1.75,10,6
1772481903.664333,7996534,-0.03,0.53,-0.31,-70.69,-82.75,65.25,-40.69,-1.06,-24.56,0.10,-0.23,0.30,-0.37,-62.19,326.44,5.50,-6.31,0.06,14,7
1772481903.707801,7996575,0.02,0.65,-0.01,-5.69,-83.81,65.00,-24.87,6.44,-20.50,0.02,-0.34,0.46,-0.62,-61.94,326.44,2.00,-5.37,3.25,19,7
1772481903.746336,7996616,-0.17,0.51,-0.09,-5.19,-84.31,64.81,-7.25,3.81,-9.75,-0.04,-0.18,0.37,-0.81,-61.88,326.37,0.81,-0.37,2.87,21,7
1772481903.786934,7996657,-0.32,0.33,0.03,-4.94,-84.56,64.94,9.06,3.87,-0.06,0.06,0.00,0.14,-1.00,-61.81,326.31,1.50,0.13,3.00,25,7
1772481903.826634,7996697,-0.42,-0.07,0.16,-5.12,-84.50,65.31,20.62,5.31,9.56,0.09,-0.17,0.19,-1.25,-61.69,326.25,1.00,-4.75,2.50,26,9
1772481903.865540,7996736,-0.94,0.99,0.66,-5.62,-84.12,65.81,35.94,13.06,16.75,0.17,0.03,0.12,-1.31,-61.44,326.25,1.25,-5.31,1.06,28,10
1772481903.906768,7996777,-0.94,1.33,1.24,-6.69,-83.25,66.87,77.56,22.56,36.25,0.13,-0.27,0.25,-1.25,-61.13,326.37,3.62,-6.12,-4.00,30,10
1772481903.947723,7996818,-0.50,0.35,0.92,-96.87,-81.56,68.56,105.69,35.31,47.38,-0.06,0.00,0.20,-1.00,-61.00,326.62,3.44,-1.69,-5.69,34,9
1772481903.989426,7996859,0.62,-0.62,-0.21,-107.44,-79.56,70.81,100.81,41.13,37.38,0.14,0.10,-0.14,-0.62,-61.06,327.06,5.75,4.06,-8.69,35,8
1772481904.030783,7996901,0.61,-1.18,-0.44,-116.06,-77.87,73.12,77.19,36.13,20.19,0.04,0.02,-0.01,-0.31,-61.13,327.50,5.00,-1.19,-7.37,32,8
1772481904.069439,7996940,0.94,-0.75,-0.68,-123.75,-76.62,75.50,48.50,28.81,3.69,0.22,0.05,-0.09,-0.13,-61.13,327.81,3.12,1.00,-3.19,28,8
1772481904.109249,7996979,0.55,-0.44,-0.58,-127.56,-76.25,76.69,33.94,26.56,-4.87,0.13,-0.01,-0.09,-0.25,-61.19,327.81,1.00,3.87,2.56,24,8
1772481904.150564,7997020,-0.03,-0.98,-0.49,-132.00,-75.81,78.06,22.31,16.06,-3.19,-0.02,0.08,0.14,-0.37,-61.31,327.69,-0.75,2.37,1.25,22,8
1772481904.191672,7997062,-0.12,-0.99,-0.40,-135.31,-75.37,78.81,5.75,17.75,-4.44,-0.17,-0.10,0.23,-0.44,-61.38,327.69,0.56,2.19,0.19,19,8
1772481904.233416,7997103,0.18,-0.01,-0.29,-138.12,-75.06,79.00,-4.69,17.06,-4.87,0.00,0.12,0.12,-0.50,-61.44,327.69,1.94,2.31,0.94,18,6
1772481904.272174,7997142,-0.09,0.23,-0.20,-139.81,-74.75,78.94,1.00,14.06,-3.50,0.06,0.12,0.21,-0.56,-61.50,327.75,2.56,1.87,-2.87,16,5
1772481904.310981,7997181,0.24,-0.18,-0.24,-141.87,-74.19,79.00,4.81,20.62,-0.25,0.07,-0.27,0.03,-0.31,-61.63,327.94,1.00,2.25,-4.31,13,4
1772481904.353703,7997224,0.41,-0.42,-0.26,-143.75,-73.50,79.12,8.69,20.81,4.31,-0.02,-0.32,-0.31,-0.13,-61.69,328.00,-3.25,0.88,0.56,9,4
1772481904.395365,7997265,0.54,0.00,-0.23,-144.44,-72.69,78.94,5.75,17.00,11.94,-0.03,-0.21,-0.06,-0.19,-61.63,327.75,-4.94,-2.19,5.19,7,5
1772481904.436535,7997307,-0.37,0.32,0.46,-144.44,-72.06,78.62,5.44,12.38,11.50,0.14,-0.14,0.33,-0.44,-61.50,327.37,-2.31,-3.37,5.31,7,7
1772481904.476249,7997346,-0.37,0.34,0.38,-144.75,-71.37,78.50,9.38,15.63,8.25,-0.05,0.03,0.01,-0.56,-61.38,327.25,-1.31,1.37,-0.25,7,6
1772481904.515380,7997385,0.10,0.00,0.12,-145.56,-70.69,78.50,8.25,18.25,5.94,-0.04,-0.11,-0.06,-0.50,-61.56,327.25,2.94,5.12,-2.25,7,6
1772481904.557270,7997427,0.21,-0.15,-0.09,-146.25,-70.06,78.44,3.50,13.19,4.06,-0.08,-0.03,-0.18,-0.44,-61.75,327.50,6.25,3.06,-3.50,7,6
1772481904.599026,7997469,0.35,-0.15,-0.27,-146.69,-69.62,78.19,-3.25,11.06,1.69,0.13,-0.18,-0.16,-0.44,-61.88,327.87,6.37,-1.00,-3.19,8,8
1772481904.640276,7997510,0.30,0.09,-0.06,-146.94,-69.37,77.81,-5.75,3.75,-0.50,0.03,-0.29,-0.01,-0.44,-61.88,328.06,5.44,-0.50,-2.25,8,8
1772481904.679792,7997550,0.57,0.08,-0.20,-146.81,-69.31,77.50,-4.94,-3.94,0.56,-0.06,0.07,-0.31,-0.44,-61.88,328.12,0.69,1.06,-0.31,9,8
1772481904.718708,7997589,0.66,-0.15,-0.33,-146.31,-69.44,77.31,-4.81,-9.00,-0.13,0.00,0.21,-0.13,-0.44,-61.88,328.12,-0.25,0.25,0.75,11,8
1772481904.760383,7997630,0.52,-0.70,-0.46,-145.37,-69.94,77.12,-13.81,-21.62,-5.56,-0.11,0.15,-0.06,-0.69,-61.88,328.00,-0.31,-1.25,1.75,10,8
1772481904.801278,7997671,1.27,-1.26,-0.77,-143.50,-71.00,76.69,-33.00,-39.44,-9.63,0.09,0.20,-0.19,-0.81,-61.88,328.06,2.56,-0.81,1.69,10,8
1772481904.843516,7997713,1.27,-1.32,-0.42,-139.37,-72.81,75.62,-59.56,-66.87,-22.81,0.16,0.04,0.14,-1.00,-61.75,328.00,-0.75,-6.37,1.62,11,8
1772481904.885958,7997756,1.36,-1.67,-0.15,-129.87,-76.56,73.75,-90.50,-88.12,-38.38,0.18,0.00,0.19,-1.06,-61.63,327.94,-2.00,-0.94,1.81,14,9
1772481904.924797,7997794,-1.11,-0.21,0.92,-113.69,-80.12,71.50,-119.12,-107.75,-48.44,-0.03,-0.03,0.30,-1.06,-61.50,327.81,-2.81,0.75,1.12,18,10
1772481904.963489,7997833,-2.67,0.37,1.19,-88.94,-82.62,69.19,-111.69,-76.25,-41.75,0.24,-0.17,0.06,-1.00,-61.50,327.69,-3.50,2.31,1.19,18,10
1772481905.005183,7997875,-1.03,0.72,0.86,-6.37,-83.31,67.50,-83.56,-21.25,-22.62,0.01,-0.15,0.50,-0.88,-61.44,327.69,-1.94,-1.12,1.37,16,9
1772481905.046740,7997917,-1.06,1.22,0.86,-5.31,-83.87,65.06,-62.44,-11.56,-14.63,0.01,-0.01,0.22,-0.81,-61.50,327.69,-1.19,4.12,-0.31,16,9
1772481905.087939,7997958,-0.12,1.13,0.35,-4.94,-84.12,63.81,-31.94,5.75,-3.75,0.05,0.15,-0.04,-0.81,-61.63,327.69,-1.31,0.31,1.94,15,9
1772481905.127161,7997997,0.12,0.36,0.14,-4.94,-84.12,63.25,-6.50,-0.81,3.94,0.10,0.06,-0.06,-0.81,-61.63,327.62,0.75,-1.19,-0.25,14,9
1772481905.166569,7998036,0.12,0.42,0.15,-5.00,-84.00,63.06,-0.37,-3.37,-0.19,0.07,-0.05,-0.19,-0.88,-61.63,327.69,0.69,-1.00,0.56,14,10
1772481905.207592,7998078,-0.13,0.34,0.13,-5.00,-83.94,63.25,7.69,-2.06,-1.62,-0.05,0.01,0.09,-1.00,-61.50,327.62,-0.25,-0.56,2.25,13,11
1772481905.249149,7998119,-0.25,-0.01,0.04,-5.00,-83.94,63.69,10.75,-0.62,-1.19,-0.02,0.08,-0.03,-1.12,-61.50,327.50,0.31,-0.13,1.56,12,9
1772481905.290197,7998160,-0.17,-0.17,-0.04,-5.00,-84.00,64.06,8.63,2.06,-1.94,-0.08,-0.15,-0.08,-1.25,-61.50,327.44,-1.25,0.25,1.62,9,8
1772481905.329086,7998199,0.29,-0.17,0.00,-4.81,-84.19,64.50,7.00,2.37,-5.25,0.07,-0.16,-0.17,-1.44,-61.56,327.19,-6.94,-2.62,7.12,4,6
1772481905.368285,7998238,-0.18,-0.07,0.18,-4.69,-84.31,64.94,7.81,-4.00,-2.19,-0.04,-0.03,0.03,-1.56,-61.38,326.75,-8.56,-4.25,7.81,4,6
1772481905.409378,7998279,-0.50,0.11,0.12,-4.81,-84.12,65.25,12.38,-2.69,4.50,0.04,0.05,0.20,-1.81,-61.38,326.25,-5.56,-5.56,5.62,4,6
1772481905.450302,7998320,-0.25,-0.06,0.07,-5.12,-83.94,65.44,14.00,4.81,10.00,0.00,0.41,0.07,-1.87,-61.06,325.94,-2.81,-6.62,-0.13,7,5
1772481905.492477,7998363,0.08,-0.14,0.08,-5.50,-83.75,65.56,12.38,6.31,7.69,0.14,0.14,-0.12,-1.56,-60.88,326.00,-2.25,0.19,-4.81,8,5
1772481905.531726,7998402,-0.21,0.32,0.19,-5.81,-83.62,65.69,11.56,9.50,6.31,0.10,-0.07,0.22,-1.00,-60.81,326.25,0.31,-2.81,-8.31,9,5
1772481905.570617,7998441,-0.61,0.49,0.28,-6.06,-83.56,66.00,20.75,15.75,8.94,0.03,-0.19,0.04,-0.69,-60.81,326.44,1.00,1.25,-4.87,10,5
1772481905.612600,7998483,-1.08,0.56,0.57,-83.87,-83.12,66.44,40.94,37.06,24.12,0.02,-0.20,0.35,-0.44,-60.81,326.62,0.56,2.50,-0.44,10,4
1772481905.653632,7998524,-0.73,0.40,0.78,-100.19,-81.75,67.00,64.50,59.75,38.69,0.10,-0.10,0.14,-0.44,-60.94,326.56,-1.44,5.50,1.25,11,4
1772481905.696819,7998567,-0.01,0.42,0.60,-114.37,-79.56,67.87,80.00,63.63,42.50,-0.03,0.27,-0.12,-0.44,-61.19,326.50,-1.81,5.87,1.69,14,4
1772481905.738092,7998608,0.65,0.11,0.20,-125.00,-76.37,69.62,83.56,56.56,40.13,0.01,0.34,-0.13,-0.37,-61.25,326.62,3.25,0.00,-4.19,15,6
1772481905.777190,7998647,1.16,-1.06,-0.52,-130.94,-74.12,71.31,72.56,45.63,29.87,-0.06,0.07,0.07,-0.13,-61.25,326.94,3.69,0.56,-7.44,17,7
1772481905.816274,7998686,1.00,-0.89,-0.66,-134.25,-72.75,72.69,40.94,26.75,14.00,0.11,-0.20,-0.17,0.25,-61.31,327.31,2.56,1.31,-6.56,18,8
1772481905.858222,7998728,0.90,-0.55,-0.63,-136.12,-72.12,73.31,20.50,17.25,1.19,-0.01,-0.25,-0.24,0.50,-61.38,327.50,0.81,0.75,-1.75,15,9
1772481905.900051,7998770,0.44,-0.09,-0.49,-137.75,-71.81,74.06,8.88,0.56,-0.69,-0.06,-0.20,0.04,0.56,-61.44,327.44,-2.44,1.56,2.44,15,9
1772481905.941466,7998811,-0.13,0.15,-0.31,-138.25,-71.81,74.50,7.06,3.94,-2.37,-0.05,-0.07,0.28,0.50,-61.44,327.31,-0.50,0.37,1.81,14,9
1772481905.980294,7998850,-0.21,0.06,-0.11,-139.12,-71.69,74.87,9.31,5.50,-1.37,-0.04,0.00,0.22,0.31,-61.50,327.25,2.06,2.00,1.19,13,9
1772481906.019326,7998889,0.12,-0.25,-0.25,-140.06,-71.50,75.25,6.62,7.00,-0.13,0.01,-0.10,0.03,0.19,-61.56,327.31,2.62,2.56,0.69,13,9
1772481906.060753,7998931,0.30,-0.11,-0.24,-140.81,-71.31,75.44,3.25,6.19,-1.37,0.07,-0.11,0.01,0.06,-61.56,327.37,2.56,-0.31,1.37,11,9
1772481906.102147,7998972,0.33,-0.07,-0.24,-141.50,-71.19,75.56,1.81,3.81,-2.00,0.03,-0.02,-0.08,-0.06,-61.56,327.37,2.06,-0.06,1.50,9,10
1772481906.142636,7999013,0.22,-0.03,-0.19,-142.06,-71.19,75.69,1.81,1.81,-2.31,0.02,-0.01,-0.01,-0.31,-61.56,327.31,1.37,0.37,2.44,9,8
1772481906.181677,7999052,-0.01,0.01,-0.03,-142.31,-71.19,75.94,3.56,0.69,-1.00,0.01,0.05,0.08,-0.56,-61.56,327.25,1.44,0.00,2.19,7,7
1772481906.221051,7999091,0.22,-0.03,-0.08,-142.62,-71.19,76.19,5.06,-0.13,-0.62,-0.04,0.14,-0.06,-0.75,-61.63,327.19,1.62,2.94,1.87,7,7
1772481906.262279,7999132,-0.07,-0.11,-0.01,-143.00,-71.25,76.56,7.12,-0.19,-2.12,0.00,0.19,-0.09,-1.00,-61.69,327.19,2.87,-0.13,0.19,7,6
1772481906.303309,7999173,0.07,-0.37,0.00,-143.44,-71.31,76.94,4.62,0.81,-2.19,0.11,0.00,-0.14,-1.12,-61.69,327.25,3.00,2.69,-0.50,6,6
1772481906.343745,7999214,-0.21,-0.25,0.09,-144.00,-71.31,77.19,3.12,4.25,-2.19,0.00,0.02,0.03,-1.25,-61.75,327.31,1.31,-0.25,0.37,5,5
1772481906.383836,7999254,-0.02,-0.29,-0.06,-144.69,-71.19,77.37,0.75,5.12,-0.69,-0.02,0.10,-0.02,-1.31,-61.75,327.31,-0.25,0.13,0.75,5,5
1772481906.423394,7999294,0.10,-0.27,-0.17,-145.31,-71.06,77.37,-3.69,4.69,-1.81,0.06,0.02,0.06,-1.37,-61.75,327.25,0.13,0.06,0.00,5,5
1772481906.464875,7999335,0.14,-0.11,-0.11,-145.75,-71.00,77.19,-5.81,4.25,-3.31,0.00,0.00,0.08,-1.37,-61.75,327.25,-0.25,0.81,-0.13,5,5
1772481906.506472,7999376,0.13,-0.01,-0.19,-146.12,-71.00,77.00,-6.62,2.19,-3.62,0.02,0.00,0.04,-1.37,-61.81,327.25,-1.12,0.94,-0.13,5,4
1772481906.548304,7999418,0.15,0.10,-0.15,-146.31,-71.00,76.81,-3.19,1.19,-1.75,0.03,0.03,0.00,-1.31,-61.88,327.19,-1.31,1.00,0.44,5,5
1772481906.590679,7999461,0.21,0.08,-0.08,-146.25,-70.94,76.75,0.31,-1.75,1.31,0.04,0.01,-0.02,-1.25,-61.88,327.19,-0.56,0.13,-0.50,5,6
1772481906.632358,7999502,0.04,0.02,-0.09,-145.94,-71.00,76.69,1.44,-4.37,1.50,-0.01,0.01,0.02,-1.25,-61.88,327.25,0.94,0.50,-0.69,5,5
1772481906.672577,7999543,-0.03,0.00,-0.07,-145.69,-71.06,76.75,0.69,-1.69,0.06,0.00,0.00,0.08,-1.25,-61.88,327.25,0.69,0.13,0.44,4,5
1772481906.714003,7999584,0.11,-0.09,-0.07,-145.62,-71.12,76.81,0.31,-0.94,-0.50,0.02,-0.01,0.01,-1.31,-61.88,327.25,-0.37,1.31,0.81,4,4
1772481906.754909,7999625,-0.03,0.10,-0.08,-145.62,-71.12,76.81,2.19,-1.37,-0.31,0.01,0.02,0.08,-1.37,-61.94,327.19,0.25,0.56,0.06,5,4
1772481906.795736,7999666,0.15,-0.07,-0.06,-145.62,-71.12,77.00,4.00,0.56,2.50,-0.01,-0.05,-0.04,-1.31,-62.00,327.19,0.44,1.56,-1.37,5,5
1772481906.834938,7999705,0.04,0.00,-0.06,-145.44,-71.06,77.06,4.44,-1.06,4.19,0.01,-0.11,-0.06,-1.25,-62.06,327.25,-0.62,1.94,-0.94,5,4
1772481906.873944,7999744,0.16,0.01,-0.08,-145.12,-70.94,77.06,4.69,-0.31,5.31,0.00,-0.07,-0.01,-1.12,-62.13,327.25,-1.87,0.37,0.37,5,4
1772481906.914857,7999785,0.10,0.07,-0.03,-144.75,-70.81,77.06,2.81,-1.56,4.50,0.00,-0.01,-0.04,-1.06,-62.13,327.25,-1.00,0.06,0.56,5,4
1772481906.955728,7999826,0.00,0.23,-0.01,-144.50,-70.81,77.06,2.19,-0.13,1.19,0.00,0.02,0.04,-1.12,-62.13,327.19,0.13,-0.50,1.19,5,4
1772481906.996400,7999866,0.03,0.10,-0.06,-144.56,-70.75,77.19,4.06,0.44,-0.69,-0.01,0.06,0.00,-1.25,-62.13,327.19,1.56,-0.13,0.75,4,3
1772481907.035673,7999906,-0.13,-0.44,-0.06,-144.87,-70.81,77.44,0.81,1.00,-3.25,0.02,0.01,0.05,-1.31,-62.13,327.19,2.19,-0.19,0.37,4,3
1772481907.074734,7999945,-0.03,-0.21,-0.05,-145.56,-70.94,77.37,-10.44,3.75,-11.25,0.01,0.00,-0.04,-1.50,-62.13,327.25,2.25,0.81,1.50,4,3
1772481907.115962,7999986,0.16,-0.04,-0.11,-146.56,-71.06,77.25,-11.69,3.75,-11.56,0.01,-0.06,-0.03,-1.69,-62.13,327.19,0.62,0.44,2.56,5,3
1772481907.156848,8000027,0.40,-0.04,-0.25,-147.19,-71.12,77.06,-7.44,-0.50,-6.56,0.02,0.06,-0.13,-1.87,-62.13,327.12,-0.69,0.44,1.69,5,4
1772481907.198012,8000067,0.16,-0.08,-0.16,-147.06,-71.31,76.94,-4.06,-6.25,-1.37,-0.08,-0.06,-0.02,-1.94,-62.13,327.06,-0.56,-0.88,0.88,4,4
1772481907.239557,8000109,0.24,-0.46,-0.18,-146.37,-71.50,76.87,-2.44,-7.75,3.50,0.11,0.06,-0.07,-2.00,-62.19,327.00,-0.25,2.94,1.69,4,4
1772481907.280058,8000150,0.45,-0.60,-0.44,-145.44,-71.75,76.56,-13.00,-13.63,0.06,-0.07,0.03,0.11,-2.12,-62.25,326.94,0.37,3.00,1.19,4,5
1772481907.321119,8000191,2.04,-1.78,-1.12,-143.44,-72.37,75.87,-37.00,-36.19,-5.44,-0.05,0.06,-0.34,-2.25,-62.56,326.87,-0.13,7.69,2.50,4,6
1772481907.363622,8000233,1.67,-0.95,-0.31,-138.06,-74.37,74.19,-84.81,-83.69,-27.19,0.11,0.07,0.02,-2.31,-62.56,326.81,-0.56,-5.31,0.25,3,6
1772481907.405699,8000275,0.31,-1.02,0.46,-123.87,-78.81,71.62,-107.25,-105.06,-46.81,-0.04,0.00,0.16,-2.37,-62.38,326.69,-3.06,-2.69,1.50,3,6
1772481907.446912,8000317,-1.93,0.47,0.93,-101.75,-81.94,69.19,-117.25,-91.25,-41.06,0.11,-0.16,0.04,-2.37,-62.38,326.56,-1.37,-1.50,2.56,3,6
1772481907.486109,8000356,-1.42,1.18,1.02,-6.50,-83.31,66.75,-93.44,-36.50,-27.19,0.00,0.00,0.23,-2.56,-62.31,326.37,-1.62,2.25,4.62,4,6
1772481907.524823,8000395,-0.95,0.91,0.81,-5.75,-83.81,64.87,-56.50,-20.44,-13.38,0.03,0.07,0.18,-2.75,-62.31,326.25,-0.56,3.56,2.25,4,6
1772481907.566667,8000437,-0.55,0.82,0.60,-5.37,-83.81,63.69,-32.63,-10.88,-5.62,0.00,0.07,0.10,-2.81,-62.44,326.25,-0.06,1.37,1.06,7,6
1772481907.607823,8000478,-0.02,0.80,0.36,-5.12,-83.94,63.31,-8.75,-1.25,-6.50,0.07,0.11,0.00,-2.94,-62.44,326.19,-0.44,0.62,2.56,8,6
1772481907.649314,8000519,-0.23,0.13,0.24,-4.94,-84.06,63.56,5.37,-2.94,-3.50,0.13,0.03,-0.06,-3.19,-62.38,325.94,-2.75,-1.12,4.25,9,7
1772481907.687949,8000558,-0.27,0.01,0.04,-4.87,-84.19,63.81,6.62,6.31,-0.25,0.18,0.23,-0.02,-3.31,-62.38,325.81,-1.94,3.12,1.81,9,6
1772481907.727138,8000597,-0.34,0.27,0.12,-4.94,-84.31,64.25,17.00,7.44,-0.31,-0.12,-0.01,-0.03,-3.50,-62.44,325.69,-1.81,0.62,3.06,10,5
1772481907.768589,8000639,-0.55,-0.21,0.31,-5.06,-84.37,65.00,27.19,11.19,5.81,0.04,0.27,-0.28,-3.69,-62.50,325.37,-4.62,1.25,3.19,11,5
1772481907.809943,8000680,-1.50,0.64,1.10,-5.62,-84.12,65.62,39.19,33.94,17.06,-0.08,0.04,0.01,-3.75,-62.38,325.19,-2.06,-4.31,3.00,11,6
1772481907.851596,8000722,-1.84,1.00,1.48,-173.25,-83.19,66.44,65.31,52.94,35.38,0.11,-0.24,0.03,-3.94,-62.19,325.06,1.00,-9.31,3.06,12,6
1772481907.890603,8000761,-0.20,0.44,1.12,-114.56,-80.62,67.44,87.37,79.81,52.88,-0.03,-0.16,0.38,-4.00,-61.63,325.12,4.81,-11.50,-1.75,11,6
1772481907.929688,8000800,1.35,-0.20,-0.08,-126.25,-77.44,68.87,94.75,70.37,47.69,0.18,0.16,-0.13,-3.94,-61.56,325.37,5.44,3.87,-7.44,10,6
1772481907.971797,8000842,1.42,-0.96,-0.65,-132.69,-74.94,70.75,75.69,47.38,27.37,-0.01,-0.14,-0.39,-3.44,-61.75,325.87,0.37,2.81,-7.31,7,6
1772481908.013381,8000883,1.37,-1.09,-0.76,-136.87,-73.56,72.50,41.25,21.19,7.69,0.01,0.08,-0.34,-3.00,-61.94,326.00,-1.75,3.00,-4.81,6,6
1772481908.054965,8000925,0.72,-0.54,-0.40,-138.81,-73.00,73.81,26.37,3.31,4.87,-0.05,-0.06,-0.21,-2.75,-62.06,326.00,-4.06,0.69,-0.62,6,5
1772481908.094817,8000965,0.09,-0.30,0.00,-139.25,-72.94,74.69,15.38,-4.94,2.69,-0.05,0.03,-0.06,-2.50,-62.06,326.00,-3.50,0.00,-1.62,6,5
1772481908.135551,8001005,-0.37,-0.35,0.21,-139.12,-73.06,75.19,6.44,-2.00,-0.06,0.03,-0.11,0.03,-2.37,-62.06,325.94,-0.69,-0.62,0.06,6,6
1772481908.175051,8001045,-0.31,0.04,0.14,-139.50,-73.00,75.56,9.56,6.00,2.62,0.00,-0.05,0.22,-2.37,-62.00,326.00,0.69,-2.69,-0.25,6,7
1772481908.216687,8001087,-0.17,0.31,0.00,-140.12,-72.62,75.75,10.38,12.81,5.81,0.14,-0.01,0.17,-2.37,-61.94,326.06,3.31,0.19,-1.69,6,6
1772481908.258800,8001129,0.32,-0.02,-0.27,-141.50,-71.94,76.06,12.63,13.44,3.37,-0.01,-0.13,0.21,-2.31,-61.88,326.25,3.06,0.37,-2.25,6,6
1772481908.299859,8001170,0.13,0.00,-0.29,-142.62,-71.56,76.50,10.81,10.13,0.62,0.13,0.05,0.00,-2.44,-62.00,326.31,2.87,-1.69,-0.75,6,7
1772481908.340495,8001211,0.27,-0.33,-0.23,-143.81,-71.25,76.94,9.31,9.63,-0.56,0.03,-0.05,0.11,-2.44,-62.00,326.37,1.87,1.25,0.25,5,7
1772481908.380752,8001251,0.23,-0.17,-0.12,-144.87,-71.06,77.25,5.56,4.50,-1.87,0.10,-0.03,-0.13,-2.56,-62.06,326.44,1.62,3.87,0.62,6,6
1772481908.421865,8001292,0.14,-0.08,-0.05,-145.50,-70.94,77.62,6.87,4.06,-0.06,-0.04,0.02,-0.05,-2.62,-62.13,326.44,1.25,1.06,0.37,7,6
1772481908.462844,8001333,0.23,-0.15,-0.08,-145.75,-70.81,77.87,5.81,0.25,2.19,0.00,0.13,-0.11,-2.75,-62.19,326.50,1.69,1.31,0.06,7,6
1772481908.504627,8001375,-0.04,-0.24,0.04,-146.00,-70.87,78.06,1.87,-0.37,-1.44,0.05,0.01,0.03,-2.75,-62.19,326.56,1.56,-0.25,-1.12,6,6
1772481908.543351,8001413,-0.10,0.00,0.09,-146.31,-70.87,78.19,0.31,1.87,-2.00,0.00,0.06,0.03,-2.75,-62.25,326.56,0.81,0.88,-0.62,5,5
1772481908.582585,8001453,0.00,-0.24,-0.07,-146.62,-70.81,78.25,0.56,2.31,-1.00,0.00,0.08,-0.05,-2.75,-62.25,326.62,0.19,0.88,-0.19,5,5
1772481908.624053,8001494,0.06,-0.09,-0.10,-146.94,-70.75,78.25,-2.44,1.62,-1.75,0.03,0.06,0.04,-2.75,-62.31,326.62,0.50,-0.56,-0.19,5,5
1772481908.665964,8001536,0.08,0.04,-0.04,-147.06,-70.75,78.19,-1.31,0.56,-1.06,0.08,0.05,0.04,-2.75,-62.25,326.62,0.37,-0.62,-0.06,4,7
1772481908.707744,8001578,-0.04,0.02,0.00,-147.12,-70.81,78.25,0.62,0.31,-0.94,0.06,0.03,0.05,-2.81,-62.25,326.62,0.37,-0.06,-0.37,5,6
1772481908.748736,8001619,0.08,-0.04,-0.04,-147.31,-70.81,78.25,-0.25,0.56,-1.44,0.00,0.03,0.05,-2.75,-62.25,326.62,0.94,0.81,-0.69,6,7
1772481908.788016,8001658,0.26,-0.04,-0.09,-147.50,-70.81,78.37,0.00,-0.50,-1.06,0.03,0.09,-0.12,-2.75,-62.31,326.62,0.00,2.25,-0.50,7,8
1772481908.827743,8001698,-0.03,-0.02,0.00,-147.50,-70.87,78.37,0.62,-1.62,-0.44,-0.01,0.00,0.04,-2.75,-62.38,326.62,0.37,0.50,-0.62,7,7
1772481908.869719,8001740,0.06,-0.09,0.01,-147.44,-70.87,78.44,0.56,-0.62,1.00,0.01,-0.03,-0.11,-2.62,-62.38,326.69,0.19,1.50,-1.12,7,8
1772481908.911555,8001782,0.03,0.00,0.04,-147.31,-70.87,78.37,-0.25,-1.00,1.12,0.03,-0.02,-0.08,-2.62,-62.44,326.75,-0.88,0.88,-0.31,7,8
1772481908.952426,8001823,0.06,0.00,0.03,-147.12,-70.87,78.31,-0.69,-0.50,1.00,0.01,0.00,-0.03,-2.56,-62.44,326.69,-0.88,0.44,-0.06,7,8
1772481908.993100,8001863,0.00,0.08,0.02,-147.00,-70.94,78.25,-2.19,-1.94,-0.19,0.06,0.01,-0.02,-2.50,-62.44,326.69,-0.13,-0.31,-0.56,8,8
1772481909.033514,8001903,0.05,0.14,0.00,-146.81,-70.94,78.19,-0.13,-0.88,0.37,-0.01,-0.05,0.05,-2.50,-62.44,326.69,0.00,0.13,-0.13,9,7
1772481909.074134,8001944,-0.03,0.10,0.02,-146.69,-71.00,78.25,2.50,-1.37,1.19,0.02,0.00,0.01,-2.50,-62.44,326.69,0.13,0.75,-0.62,9,5
1772481909.115302,8001986,0.07,0.02,-0.03,-146.75,-71.00,78.37,3.06,0.50,0.19,0.02,0.00,0.00,-2.50,-62.50,326.69,0.44,0.00,-0.31,7,5
1772481909.157141,8002027,0.12,0.01,-0.01,-146.87,-71.00,78.50,2.87,0.25,-0.31,0.05,-0.01,-0.04,-2.50,-62.50,326.69,0.75,-0.19,0.00,6,4
1772481909.195798,8002066,0.11,0.06,-0.02,-147.00,-71.00,78.69,3.12,0.06,-0.62,0.04,0.01,0.01,-2.56,-62.50,326.75,1.00,-0.31,0.00,6,4
1772481909.235121,8002105,0.06,0.00,0.00,-147.25,-71.00,78.87,3.94,-0.37,-1.37,0.00,0.00,0.00,-2.62,-62.50,326.75,0.81,-0.13,-0.37,5,4
1772481909.276855,8002147,0.02,-0.13,0.02,-147.44,-71.06,79.12,2.87,-0.88,-1.19,0.04,-0.01,-0.03,-2.62,-62.50,326.75,0.69,0.06,0.06,4,3
1772481909.319328,8002189,0.21,-0.17,-0.08,-147.69,-71.06,79.31,-0.44,-0.13,-2.19,0.10,0.08,-0.04,-2.69,-62.50,326.75,-0.31,1.19,1.19,6,4
1772481909.361801,8002232,-0.06,-0.15,0.02,-147.94,-71.12,79.31,-3.62,-0.25,-3.87,-0.01,-0.03,0.04,-2.69,-62.50,326.75,0.00,-0.19,-0.06,6,3
1772481909.403496,8002273,0.07,-0.16,0.02,-148.31,-71.25,79.25,-6.12,1.25,-3.81,0.07,-0.04,-0.08,-2.75,-62.50,326.75,-0.50,0.81,0.75,6,3
1772481909.444480,8002315,0.00,-0.05,0.03,-148.44,-71.25,79.00,-9.31,1.75,-3.19,0.06,0.01,-0.03,-2.75,-62.50,326.69,-0.94,-0.06,0.88,5,3
1772481909.485058,8002355,0.02,-0.10,0.00,-148.62,-71.25,78.62,-11.06,2.31,-4.75,0.00,0.07,-0.02,-2.75,-62.50,326.62,-0.75,0.44,0.62,6,4
1772481909.526048,8002396,0.03,0.12,0.00,-148.75,-71.31,78.12,-13.81,2.50,-5.56,0.02,-0.02,0.01,-2.75,-62.50,326.62,-0.25,0.13,0.31,6,4
1772481909.567044,8002437,0.06,0.14,-0.03,-149.00,-71.31,77.75,-9.56,2.25,-4.37,-0.01,0.04,-0.03,-2.81,-62.50,326.62,-0.56,0.25,0.81,8,4
1772481909.608235,8002478,0.21,-0.09,-0.16,-149.00,-71.31,77.50,-6.56,-1.00,-1.25,0.03,0.04,-0.02,-2.81,-62.50,326.56,-1.00,0.31,0.69,7,4
1772481909.647600,8002517,0.55,-0.43,-0.38,-148.69,-71.44,77.19,-9.13,-6.75,-0.44,-0.01,0.01,-0.10,-2.81,-62.50,326.56,-0.19,-0.56,0.56,7,5
1772481909.686163,8002556,1.44,-1.22,-1.00,-146.87,-72.00,76.44,-26.06,-25.00,0.37,-0.01,0.00,-0.22,-2.87,-62.56,326.50,1.44,5.69,2.06,8,5
1772481909.727937,8002598,2.23,-1.69,-0.92,-141.81,-73.75,74.69,-65.50,-69.87,-12.00,-0.01,0.12,-0.18,-3.12,-62.69,326.44,-0.56,-2.69,0.62,6,5
1772481909.770592,8002641,1.43,-0.80,-0.09,-131.56,-77.06,72.31,-101.87,-103.81,-33.00,0.14,0.04,0.19,-3.06,-62.63,326.37,-2.44,-2.12,0.62,6,5
1772481909.813881,8002684,-1.00,0.26,0.92,-112.37,-80.69,69.87,-112.25,-108.50,-40.63,0.09,-0.30,0.60,-3.00,-62.56,326.31,-2.94,-2.44,1.19,6,5
1772481909.855408,8002725,-2.19,0.78,1.36,-83.56,-82.69,66.94,-86.37,-38.81,-17.19,0.17,-0.19,0.47,-3.12,-62.50,326.06,-2.44,0.88,5.06,5,6
1772481909.894483,8002764,-0.53,0.73,0.68,-73.81,-83.00,64.94,-59.56,-24.06,-11.94,-0.10,0.20,-0.22,-3.12,-62.56,326.00,-0.69,1.56,-2.31,6,6
1772481909.933470,8002803,-0.67,1.33,0.78,-6.00,-83.25,63.75,-42.00,-11.69,-15.81,0.06,0.11,-0.02,-3.06,-62.63,326.00,-0.69,0.44,-0.19,8,6
1772481909.975069,8002845,-0.05,0.62,0.42,-5.56,-83.56,63.25,-24.50,-4.19,-12.63,0.03,0.00,0.10,-3.00,-62.63,326.00,0.00,-2.44,-0.88,8,7
1772481910.016522,8002886,-0.09,0.55,0.17,-4.94,-84.06,62.94,-13.75,0.69,-12.00,0.05,-0.04,-0.16,-2.94,-62.63,326.00,-0.50,0.56,0.56,9,6
1772481910.057760,8002928,0.02,0.22,0.17,-4.56,-84.31,63.06,-1.06,-0.37,-5.75,-0.02,-0.04,-0.06,-3.00,-62.69,325.94,-1.87,0.06,4.06,11,4
1772481910.096600,8002967,-0.33,0.31,0.30,-4.56,-84.31,63.25,4.12,-0.81,1.00,-0.03,0.02,-0.10,-3.25,-62.69,325.75,-0.06,0.25,2.56,11,4
1772481910.135148,8003005,-0.98,0.84,0.69,-4.69,-84.31,63.50,18.12,9.75,5.37,0.02,-0.02,-0.04,-3.44,-62.69,325.69,2.00,0.00,1.44,12,4
1772481910.176663,8003047,-1.88,0.97,1.16,-5.19,-84.31,64.06,35.56,30.00,15.31,0.12,-0.11,0.14,-3.56,-62.63,325.75,1.50,-0.31,0.19,13,4
1772481910.217969,8003088,-1.51,1.12,1.31,-173.75,-83.75,65.00,64.75,59.75,29.94,-0.05,-0.09,0.00,-3.62,-62.69,325.69,0.50,1.94,1.56,14,4
1772481910.259320,8003130,-0.73,0.41,1.53,-113.12,-81.44,66.37,103.69,88.56,54.25,-0.02,0.15,0.27,-3.75,-62.69,325.69,1.31,0.44,-0.31,15,4
1772481910.298991,8003169,1.22,-1.05,0.47,-128.06,-77.62,68.12,106.81,88.00,57.69,0.06,0.18,-0.20,-3.62,-62.75,325.75,1.62,1.44,-4.81,15,5
1772481910.338291,8003208,1.95,-1.41,-0.57,-134.75,-74.44,69.81,82.62,56.88,40.13,-0.09,0.23,-0.52,-3.31,-62.81,326.00,0.75,-0.31,-4.62,15,6
1772481910.379674,8003250,1.10,-1.08,-0.76,-138.00,-72.87,71.25,40.50,26.81,12.19,0.08,0.07,-0.14,-3.06,-62.75,326.19,2.06,-2.12,-4.19,16,7
1772481910.423039,8003293,0.79,-0.35,-0.49,-140.81,-72.25,72.19,15.50,18.37,-7.31,-0.07,-0.19,-0.05,-2.87,-62.69,326.31,-1.31,-1.50,-0.19,17,7
1772481910.464568,8003334,0.27,-0.37,-0.33,-142.56,-72.19,72.94,7.25,1.94,-3.75,0.03,-0.09,-0.01,-2.81,-62.69,326.25,-2.50,-0.13,2.00,17,8
1772481910.505423,8003376,-0.16,0.19,-0.01,-143.12,-72.19,73.31,8.00,0.75,-1.00,-0.05,0.07,0.24,-2.94,-62.69,326.19,0.44,0.44,1.44,17,9
1772481910.546960,8003417,-0.06,-0.07,-0.01,-143.75,-72.06,73.81,12.00,4.56,1.56,0.08,0.04,0.12,-3.00,-62.69,326.12,0.06,1.06,-0.31,16,9
1772481910.586738,8003457,-0.17,0.02,-0.04,-144.62,-71.81,74.44,13.69,7.87,3.06,0.06,-0.10,0.17,-2.94,-62.69,326.19,-0.44,-0.62,0.56,16,8
1772481910.628785,8003499,0.16,-0.04,-0.15,-145.56,-71.37,74.81,11.69,11.56,3.62,-0.01,-0.04,-0.09,-2.87,-62.69,326.25,-0.81,1.56,0.00,14,8
1772481910.669437,8003540,0.27,0.07,-0.24,-146.25,-70.94,75.06,9.13,10.25,3.75,0.01,-0.03,-0.10,-2.75,-62.69,326.25,1.00,-0.19,-0.81,13,8
1772481910.709970,8003580,0.29,0.00,-0.15,-146.81,-70.56,75.31,8.94,6.31,3.50,-0.04,0.06,-0.23,-2.81,-62.75,326.25,0.94,-0.44,0.75,12,7
1772481910.748764,8003619,0.27,0.05,-0.05,-147.19,-70.31,75.50,6.00,3.25,1.25,0.02,0.07,-0.02,-2.94,-62.75,326.19,0.75,0.56,1.12,10,8
1772481910.789234,8003660,0.17,-0.04,0.00,-147.56,-70.31,75.87,6.75,0.25,-1.37,0.00,0.05,-0.11,-3.06,-62.81,326.19,1.06,1.25,0.81,8,7
1772481910.830410,8003700,-0.03,-0.16,0.03,-147.87,-70.37,76.25,5.56,-1.87,-1.06,0.00,-0.04,-0.07,-3.19,-62.81,326.19,1.37,0.25,0.56,6,6
1772481910.871034,8003741,0.00,0.09,0.08,-148.00,-70.44,76.50,2.94,-1.37,-1.12,0.02,0.12,-0.05,-3.31,-62.88,326.19,1.25,0.75,1.00,5,6
1772481910.911891,8003782,-0.13,-0.17,0.07,-148.06,-70.50,76.75,4.87,-2.37,-0.44,0.02,0.00,-0.01,-3.37,-62.88,326.19,1.31,-0.44,-1.25,4,6
1772481910.951631,8003822,-0.11,-0.19,0.09,-148.12,-70.56,76.94,1.69,0.00,0.31,0.06,-0.02,-0.07,-3.31,-62.88,326.25,-0.06,1.06,-0.25,4,7
1772481910.991720,8003862,0.10,-0.09,-0.01,-148.31,-70.50,76.94,-0.69,2.44,-0.37,-0.02,0.03,-0.03,-3.31,-62.88,326.25,-1.25,-0.06,0.56,2,7
1772481911.032420,8003903,-0.01,0.01,0.01,-148.31,-70.44,76.87,-0.75,1.19,0.69,0.05,0.03,0.00,-3.31,-62.88,326.19,-0.56,-0.31,-0.13,2,8
1772481911.073743,8003944,0.04,0.13,0.02,-148.37,-70.44,76.81,-1.06,1.25,-0.69,0.03,0.00,-0.05,-3.31,-62.88,326.19,0.19,0.00,0.06,3,8
1772481911.115927,8003986,0.14,0.11,-0.03,-148.44,-70.44,76.81,0.69,-0.69,-0.88,0.00,0.03,0.00,-3.31,-62.88,326.19,0.44,-0.44,-0.37,2,7
1772481911.155030,8004025,0.11,0.00,-0.09,-148.50,-70.50,76.87,0.25,-1.75,-1.75,0.00,0.04,-0.01,-3.31,-62.88,326.19,0.50,0.25,0.19,3,7
1772481911.193690,8004064,0.00,0.00,0.04,-148.56,-70.56,77.00,0.31,-2.06,-2.19,0.02,0.01,0.00,-3.31,-62.88,326.19,0.44,0.19,0.50,3,6
1772481911.235393,8004106,0.05,-0.01,0.00,-148.69,-70.62,77.12,1.81,-0.37,-0.88,0.08,0.04,0.01,-3.37,-62.88,326.19,0.69,0.81,0.31,2,6
1772481911.277115,8004148,0.03,-0.04,0.00,-148.81,-70.62,77.25,2.06,0.56,-0.69,0.03,0.02,0.00,-3.37,-62.94,326.25,1.00,0.50,0.25,3,6
1772481911.319611,8004190,0.01,0.02,-0.03,-149.00,-70.62,77.31,0.81,0.19,-0.75,0.01,0.02,-0.06,-3.37,-62.94,326.25,0.31,0.37,-0.13,3,6
1772481911.361256,8004231,0.01,-0.03,0.05,-149.06,-70.62,77.37,0.69,0.25,-0.50,-0.05,-0.05,0.00,-3.37,-62.94,326.25,-0.13,0.37,0.06,3,5
1772481911.402185,8004272,0.08,0.09,0.01,-149.06,-70.69,77.44,-0.13,-1.19,-1.44,0.05,0.11,-0.04,-3.44,-62.94,326.25,0.06,0.06,0.37,4,6
1772481911.442318,8004312,0.00,-0.05,0.04,-149.12,-70.75,77.50,1.25,-1.69,-1.25,0.01,-0.02,0.01,-3.44,-62.94,326.25,0.81,-0.13,-0.44,4,6
1772481911.483232,8004353,-0.01,-0.05,0.03,-149.12,-70.81,77.62,1.37,-0.56,0.44,0.01,0.00,-0.05,-3.44,-62.94,326.25,0.06,-0.19,0.19,4,6
1772481911.524069,8004394,0.00,0.02,0.03,-149.12,-70.81,77.62,0.06,0.56,-0.19,0.00,0.01,-0.02,-3.44,-62.94,326.19,-0.37,-0.13,0.81,5,7
1772481911.565048,8004435,0.10,0.10,0.01,-149.25,-70.75,77.62,-0.88,1.06,-1.06,0.05,0.03,-0.04,-3.50,-62.94,326.19,-0.19,-0.13,0.69,4,5
1772481911.606217,8004477,0.00,0.02,0.02,-149.37,-70.81,77.69,0.62,0.75,-0.94,0.01,0.01,0.04,-3.50,-62.94,326.19,0.25,-0.62,0.25,4,6
1772481911.647038,8004517,0.06,-0.02,-0.01,-149.50,-70.75,77.69,0.88,0.69,-0.69,0.01,0.03,-0.01,-3.50,-62.94,326.19,0.69,-0.19,-0.19,4,6
1772481911.688140,8004558,-0.01,-0.05,-0.02,-149.56,-70.75,77.75,0.50,0.44,-0.56,0.04,0.02,0.04,-3.50,-62.94,326.19,0.06,-0.62,0.19,4,6
1772481911.730832,8004601,0.02,0.05,-0.02,-149.62,-70.75,77.81,1.31,0.56,-0.56,0.05,0.03,-0.01,-3.50,-62.88,326.19,0.31,-0.31,0.31,5,6
1772481911.772322,8004643,0.06,0.00,-0.02,-149.69,-70.75,77.87,1.19,0.50,0.25,0.03,0.06,0.00,-3.56,-62.88,326.19,0.62,-0.13,0.00,5,5
1772481911.814193,8004684,0.16,-0.22,-0.11,-149.81,-70.75,77.94,0.06,-0.62,-1.06,-0.02,0.01,-0.04,-3.56,-62.88,326.19,0.44,-0.13,-0.37,6,6
1772481911.854493,8004725,0.42,-0.48,-0.31,-149.75,-70.81,77.94,-3.37,-3.87,0.81,0.02,0.00,-0.13,-3.56,-62.88,326.19,0.06,-0.13,-0.06,5,7
1772481911.893885,8004764,1.16,-0.99,-0.73,-148.69,-71.19,77.50,-14.13,-16.06,0.69,-0.05,-0.05,-0.14,-3.56,-62.94,326.19,-0.06,0.75,-0.13,5,6
1772481911.935488,8004805,2.12,-1.83,-1.14,-145.69,-72.44,76.37,-47.81,-51.25,-12.50,-0.08,0.19,-0.40,-3.75,-63.06,326.12,-0.88,-0.44,1.25,5,7
1772481911.976658,8004846,1.63,-1.20,-0.42,-139.37,-75.44,74.44,-90.81,-87.25,-34.75,0.11,0.09,0.05,-3.75,-63.06,326.06,-1.25,-0.13,-0.44,4,8
1772481912.019417,8004889,0.17,-0.09,0.58,-128.06,-79.44,72.12,-114.69,-106.06,-52.00,0.14,-0.17,0.24,-3.62,-62.94,326.00,-3.25,-1.69,-0.13,4,8
1772481912.059543,8004930,-2.06,0.34,1.19,-108.50,-82.81,70.06,-98.19,-84.62,-38.94,0.10,-0.22,0.41,-3.62,-62.88,325.87,-3.44,-1.44,3.12,4,8
1772481912.098716,8004969,-1.21,0.74,0.93,-5.94,-84.00,67.69,-84.44,-28.12,-16.62,0.12,0.00,0.45,-3.69,-62.81,325.75,1.00,0.69,0.75,5,9
1772481912.140167,8005010,-1.22,1.22,0.72,-5.44,-84.44,65.75,-41.69,-21.31,-7.37,-0.04,-0.11,-0.04,-3.94,-62.88,325.62,-1.44,1.25,4.81,6,9
1772481912.182134,8005052,-0.61,1.07,0.59,-5.25,-84.44,64.81,-15.69,-2.19,0.19,0.03,0.20,0.10,-4.19,-62.88,325.44,-1.19,3.31,1.81,6,9
1772481912.224412,8005095,0.14,0.15,0.15,-5.25,-84.37,64.44,-1.06,-3.37,0.88,0.10,0.12,-0.20,-4.25,-62.94,325.37,-0.50,1.69,-0.13,7,8
1772481912.266055,8005136,-0.03,-0.15,0.15,-5.31,-84.25,64.37,-4.37,-5.81,-0.44,0.12,0.16,-0.14,-4.12,-63.00,325.44,0.50,-0.81,-1.62,8,7
1772481912.304990,8005175,0.35,-0.01,0.12,-5.19,-84.31,64.19,-8.50,-3.37,-3.81,0.11,0.06,-0.11,-4.12,-62.94,325.50,1.31,-1.50,-0.50,8,8
1772481912.343698,8005214,-0.05,0.30,0.15,-4.94,-84.37,64.06,-9.81,-6.44,-5.75,0.01,-0.06,0.20,-4.19,-62.88,325.50,1.81,-2.19,-0.13,9,7
1772481912.385542,8005256,-0.20,0.09,0.13,-4.75,-84.44,64.00,-5.31,-5.19,-4.31,0.02,-0.13,0.09,-4.25,-62.81,325.50,-0.56,-0.13,1.44,10,6
1772481912.426683,8005297,-0.08,0.47,0.06,-4.56,-84.56,63.88,-13.44,0.75,-6.00,-0.05,-0.13,0.08,-4.50,-62.75,325.31,4.75,-5.06,1.56,10,6
1772481912.467894,8005338,0.01,1.05,0.09,-4.12,-85.00,63.81,-8.56,2.00,-14.31,0.03,0.02,-0.13,-4.56,-62.75,325.62,3.19,0.44,-0.94,10,6
1772481912.507321,8005378,0.30,-0.17,0.11,-3.44,-85.56,64.50,2.94,1.44,-16.06,0.11,-0.24,0.07,-4.56,-62.81,325.62,-4.62,4.50,2.50,10,6
1772481912.546680,8005416,-0.03,-0.28,0.13,-3.00,-85.87,64.94,-0.19,-3.37,-9.25,-0.02,-0.06,-0.27,-4.69,-62.94,325.31,-5.44,2.69,5.37,8,5
1772481912.587428,8005457,-0.26,-0.29,0.32,-2.75,-85.94,65.25,2.06,-3.56,-2.81,-0.01,0.18,-0.23,-4.87,-63.06,325.00,-6.19,4.06,3.00,7,5
1772481912.628495,8005499,-0.56,-0.02,0.58,-2.87,-85.81,65.31,5.00,1.19,6.87,0.14,0.30,-0.21,-4.75,-63.19,324.81,-3.37,0.75,-2.06,5,4
1772481912.670599,8005541,-0.97,0.66,0.66,-3.31,-85.69,65.12,9.94,11.00,13.13,0.12,0.16,0.15,-4.50,-63.19,325.00,2.81,-0.69,-5.62,4,4
1772481912.709528,8005580,-1.01,0.89,0.72,-4.00,-85.56,65.25,30.00,31.00,18.00,0.02,-0.06,0.18,-4.25,-63.19,325.25,3.00,0.00,-4.19,5,4
1772481912.748724,8005619,-1.37,1.40,1.20,-175.00,-85.00,65.87,53.44,51.50,28.44,0.05,-0.07,0.25,-4.00,-63.19,325.44,1.19,0.13,-1.81,6,4
1772481912.789825,8005660,-0.67,0.45,0.93,-114.06,-83.00,67.12,85.75,71.25,43.06,-0.01,0.01,0.26,-4.00,-63.13,325.50,1.81,1.00,-0.62,5,4
1772481912.832458,8005703,0.47,-0.66,0.27,-127.75,-79.87,68.69,95.25,75.62,50.75,0.00,0.18,-0.25,-3.94,-63.19,325.62,2.31,2.06,-1.94,6,5
1772481912.875317,8005745,1.50,-0.84,-0.27,-135.31,-76.75,70.31,76.31,57.69,36.75,0.01,0.18,-0.34,-3.81,-63.19,325.81,2.31,0.81,-4.00,7,4
1772481912.917101,8005787,1.06,-0.96,-0.60,-140.31,-74.25,72.12,45.19,35.63,17.06,0.00,0.01,-0.38,-3.62,-63.25,326.00,1.00,-0.75,-2.94,6,4
1772481912.955998,8005826,0.79,-0.36,-0.51,-142.87,-73.25,73.00,23.37,23.00,4.00,0.01,-0.10,-0.15,-3.50,-63.25,326.06,0.19,-1.44,-1.87,6,4
1772481912.995406,8005866,0.30,-0.29,-0.36,-144.44,-72.75,73.62,14.00,9.00,1.81,0.00,0.00,0.05,-3.44,-63.19,326.06,-0.37,-1.25,-0.88,7,4
1772481913.037883,8005908,0.12,-0.22,-0.15,-144.87,-72.56,73.87,7.25,3.75,0.75,-0.01,-0.11,0.06,-3.37,-63.19,326.06,-1.19,-0.25,0.00,8,4
1772481913.079164,8005949,0.03,0.07,-0.03,-145.44,-72.37,74.25,6.56,4.94,1.87,-0.03,-0.09,0.05,-3.37,-63.19,326.00,-2.12,-0.37,0.44,9,4
1772481913.119488,8005990,0.12,0.04,-0.07,-145.81,-72.12,74.44,8.81,5.81,4.25,0.04,0.04,0.04,-3.31,-63.13,325.94,-2.12,-1.44,-0.06,7,3
1772481913.158612,8006029,-0.02,0.08,0.00,-146.06,-71.81,74.56,5.87,7.25,4.00,0.10,-0.01,0.07,-3.25,-63.00,325.94,0.44,-2.56,-0.69,6,4
1772481913.197361,8006068,0.15,0.08,-0.10,-146.50,-71.50,74.56,3.81,8.13,2.12,0.12,-0.03,0.18,-3.19,-62.94,325.94,0.88,-0.88,-1.19,6,3
1772481913.238980,8006109,0.12,0.05,-0.13,-147.06,-71.19,74.62,2.75,8.75,-0.13,0.00,-0.04,0.20,-3.19,-62.88,326.00,1.12,-1.31,0.25,5,3
1772481913.279514,8006150,0.25,0.00,-0.20,-147.69,-70.94,74.69,4.00,6.75,-0.50,0.03,0.15,0.05,-3.31,-62.81,325.94,0.56,0.19,1.00,5,3
1772481913.319965,8006190,0.21,-0.10,-0.11,-148.19,-70.75,74.87,5.25,3.50,0.44,0.04,0.06,-0.05,-3.37,-62.81,325.94,0.81,-0.44,1.25,5,3
1772481913.358870,8006229,0.13,0.00,-0.01,-148.50,-70.62,75.06,3.37,2.37,-0.31,0.06,0.01,0.04,-3.50,-62.81,325.87,1.25,-0.94,1.56,5,4
1772481913.399422,8006270,0.05,-0.08,0.00,-148.87,-70.62,75.25,2.87,1.44,-2.00,0.02,0.04,-0.04,-3.62,-62.81,325.87,0.50,-0.06,0.69,5,3
1772481913.440400,8006311,0.09,-0.30,-0.01,-149.25,-70.62,75.50,1.19,1.12,-1.50,0.05,0.08,-0.01,-3.69,-62.81,325.87,0.06,-0.19,0.37,4,4
1772481913.481315,8006352,0.14,-0.12,-0.05,-149.44,-70.56,75.50,-1.06,0.81,-1.00,0.08,0.18,-0.05,-3.69,-62.81,325.87,-0.31,1.12,0.69,4,5
1772481913.522145,8006392,0.00,0.05,-0.02,-149.56,-70.62,75.50,0.19,-0.13,-1.06,-0.01,0.09,0.02,-3.75,-62.88,325.87,0.56,0.31,-1.69,4,5
1772481913.561170,8006431,0.12,-0.13,0.00,-149.56,-70.62,75.62,3.00,-0.69,2.44,0.08,0.02,-0.07,-3.62,-62.88,325.87,-0.19,0.88,-1.50,4,5
1772481913.601469,8006471,0.00,-0.08,0.02,-149.37,-70.62,75.62,0.69,-1.06,2.25,0.07,0.02,-0.01,-3.56,-62.88,325.94,-1.19,-0.06,-0.50,5,5
1772481913.641862,8006512,0.01,0.01,0.03,-149.25,-70.62,75.56,-1.56,-0.50,0.25,0.00,0.06,0.02,-3.50,-62.88,325.94,-1.25,0.44,0.13,5,5
1772481913.683370,8006553,0.11,0.05,-0.07,-149.12,-70.62,75.50,-1.25,-1.25,-0.19,0.01,0.09,-0.03,-3.50,-62.88,325.87,-0.25,0.25,-0.75,5,6
1772481913.725444,8006596,0.05,0.13,-0.03,-149.00,-70.62,75.44,0.31,-0.44,0.62,0.05,0.01,0.01,-3.44,-62.88,325.94,0.13,0.13,-0.19,5,6
1772481913.764177,8006635,0.05,0.04,0.04,-148.94,-70.62,75.50,1.50,-0.94,0.75,0.03,-0.03,0.01,-3.44,-62.88,325.94,-0.56,0.75,-0.19,5,5
1772481913.802994,8006673,0.06,-0.02,-0.01,-148.94,-70.62,75.56,1.75,1.00,1.19,0.00,0.00,0.03,-3.44,-62.94,325.94,0.06,0.19,-0.37,5,6
1772481913.844737,8006715,0.01,-0.03,0.02,-148.94,-70.56,75.56,0.50,1.06,1.00,0.05,0.01,-0.01,-3.44,-62.94,325.94,-0.06,0.19,-0.37,5,5
1772481913.886684,8006757,0.03,0.07,-0.01,-148.94,-70.50,75.50,-0.75,0.62,0.69,0.00,0.02,0.02,-3.44,-62.94,325.94,-0.06,-0.13,-0.06,5,6
1772481913.929411,8006799,0.08,0.00,0.03,-148.94,-70.50,75.50,-0.75,-0.50,0.37,0.01,-0.06,-0.05,-3.44,-62.94,325.94,-0.75,0.56,0.00,4,6
1772481913.971146,8006842,0.10,0.14,0.04,-148.81,-70.50,75.44,0.13,-0.94,0.94,0.05,0.02,0.00,-3.44,-62.94,325.87,-0.62,-0.13,0.06,4,6
1772481914.010344,8006880,-0.01,0.16,0.01,-148.62,-70.50,75.37,-0.31,-0.50,0.13,0.09,0.06,-0.05,-3.37,-63.00,325.87,-0.75,1.31,0.44,4,6
1772481914.050186,8006920,-0.06,0.06,0.04,-148.69,-70.50,75.44,1.81,-0.13,-0.50,-0.04,-0.03,0.06,-3.37,-63.00,325.87,0.25,0.37,-0.62,3,5
1772481914.092130,8006962,0.12,-0.05,-0.01,-148.69,-70.50,75.56,3.25,-1.69,1.81,0.05,-0.04,-0.14,-3.37,-63.06,325.87,0.19,1.12,-0.25,3,5
1772481914.133064,8007003,0.27,-0.26,-0.19,-148.44,-70.56,75.62,1.12,-3.50,2.06,0.00,-0.01,-0.12,-3.37,-63.06,325.87,-0.69,-0.94,0.50,2,5
1772481914.174536,8007044,0.59,-0.55,-0.45,-147.94,-70.75,75.50,-7.81,-10.25,0.19,-0.04,-0.02,-0.13,-3.37,-63.00,325.87,-0.56,-0.75,0.75,2,6
1772481914.213420,8007083,1.95,-1.03,-1.07,-146.12,-71.50,74.87,-24.50,-31.19,-4.12,-0.03,0.07,-0.22,-3.50,-63.00,325.81,-0.62,2.75,2.75,2,6
1772481914.252507,8007122,1.77,-1.72,-0.73,-141.50,-73.62,73.69,-65.75,-76.00,-22.87,0.01,0.07,-0.12,-3.62,-63.06,325.69,-1.56,-2.56,1.25,3,7
1772481914.293647,8007164,0.76,-1.19,0.22,-132.81,-77.31,71.69,-104.31,-97.19,-47.00,0.08,-0.06,0.24,-3.56,-62.94,325.62,-2.81,-0.50,0.81,2,7
1772481914.334782,8007205,-2.21,0.66,1.35,-119.12,-80.87,69.19,-115.12,-80.56,-45.00,0.07,-0.33,0.44,-3.56,-62.94,325.50,-1.31,-1.50,2.25,3,7
1772481914.375924,8007246,-1.01,0.97,0.90,-105.50,-83.00,67.06,-82.81,-41.25,-29.75,-0.06,0.25,0.24,-3.81,-62.94,325.31,-1.81,1.94,4.87,3,7
1772481914.415364,8007285,-0.91,0.93,0.61,-174.00,-84.00,65.25,-60.63,-15.50,-16.50,0.03,0.04,0.02,-3.94,-63.13,325.19,-0.25,2.06,1.37,4,7
1772481914.454329,8007324,-0.46,0.73,0.57,-5.75,-84.19,63.88,-31.69,-7.44,-9.75,0.04,0.01,-0.09,-4.06,-63.19,325.12,2.31,0.13,-1.06,4,8
1772481914.495432,8007366,0.16,0.48,0.24,-5.44,-84.50,63.31,-18.00,3.37,-6.25,-0.06,-0.09,-0.03,-4.12,-63.19,325.12,1.19,0.13,0.56,5,7
1772481914.536635,8007407,0.35,0.43,0.01,-5.19,-84.75,63.13,-9.25,-2.69,-6.44,0.08,0.00,-0.24,-4.25,-63.31,325.12,1.44,4.50,1.19,4,6
1772481914.579087,8007449,-0.03,0.12,0.14,-4.94,-84.94,63.25,-0.13,-8.69,-5.44,-0.05,-0.01,-0.09,-4.37,-63.38,325.12,1.62,1.12,0.75,4,6
1772481914.617682,8007488,0.19,-0.03,0.21,-4.81,-85.06,63.44,-0.25,-2.19,-3.81,0.03,0.01,-0.14,-4.56,-63.38,325.06,0.81,0.69,1.31,4,6
1772481914.656729,8007527,-0.05,0.02,0.27,-4.62,-85.19,63.63,2.81,-7.31,-3.81,0.00,0.01,-0.09,-4.62,-63.44,325.06,-0.56,0.56,1.37,5,6
1772481914.697524,8007568,-0.12,-0.05,0.23,-4.50,-85.25,63.94,2.94,-3.81,-2.56,0.02,0.04,0.03,-4.69,-63.44,325.00,-0.31,-0.62,0.75,5,5
1772481914.739122,8007609,-0.28,-0.03,0.26,-4.44,-85.25,64.06,1.00,-1.94,-2.00,0.00,-0.06,-0.06,-4.69,-63.44,325.00,-0.81,-0.44,0.62,5,5
1772481914.780623,8007651,-0.14,-0.02,0.19,-4.37,-85.31,64.19,1.44,1.56,0.06,0.06,0.03,0.00,-4.75,-63.38,324.94,-0.44,-0.62,0.75,4,4
1772481914.820340,8007691,0.04,0.20,0.00,-4.37,-85.31,64.19,1.25,2.75,-0.37,0.06,0.07,0.09,-4.75,-63.38,324.94,0.19,-0.19,-0.19,3,4
1772481914.859546,8007730,0.00,0.06,0.03,-4.37,-85.37,64.25,1.31,1.31,-1.31,0.04,-0.03,0.03,-4.75,-63.38,324.94,0.69,-0.50,-0.13,3,3
1772481914.900640,8007771,0.08,-0.09,-0.04,-4.25,-85.50,64.37,-0.06,2.81,-4.00,0.04,0.00,0.00,-4.75,-63.38,324.94,0.62,0.13,0.25,3,3
1772481914.942711,8007813,0.04,0.00,-0.05,-4.12,-85.69,64.50,-2.19,2.12,-3.56,0.01,0.00,-0.06,-4.87,-63.38,324.94,0.62,0.50,1.56,3,5
1772481914.985141,8007855,0.00,0.02,0.00,-4.00,-85.81,64.56,-1.37,1.94,-3.00,0.05,0.00,0.00,-5.06,-63.38,324.81,-0.19,-0.88,2.31,4,5
1772481915.026424,8007897,-0.17,0.31,0.12,-3.94,-85.87,64.56,0.88,0.75,-0.56,0.02,-0.01,0.05,-5.19,-63.31,324.75,0.31,-0.44,1.44,4,5
1772481915.066377,8007937,0.10,0.03,0.13,-3.94,-85.87,64.75,8.19,4.00,2.94,0.09,0.09,0.02,-5.25,-63.31,324.75,0.13,1.44,0.50,4,4
1772481915.105502,8007976,-0.30,0.31,0.19,-4.12,-85.75,64.94,8.44,2.44,2.81,0.09,0.05,0.07,-5.25,-63.38,324.75,1.69,0.69,-1.50,4,4
1772481915.147103,8008017,-0.44,0.40,0.25,-4.25,-85.62,65.25,17.94,10.88,5.44,0.03,-0.03,-0.04,-5.19,-63.44,324.87,0.94,2.06,-1.00,4,4
1772481915.187737,8008058,-1.44,1.64,1.10,-175.19,-85.19,65.94,40.13,24.56,16.50,0.04,-0.14,0.16,-5.12,-63.44,324.94,-0.06,-0.25,0.56,5,5
1772481915.228797,8008099,-1.48,0.84,1.15,-174.06,-83.69,67.25,84.12,47.63,40.50,-0.05,0.16,0.10,-5.19,-63.50,324.87,0.56,1.31,-1.25,6,5
1772481915.267894,8008138,-0.13,0.02,0.99,-122.62,-80.87,69.06,110.75,71.19,55.63,-0.07,0.17,-0.19,-5.06,-63.50,325.00,2.25,-0.13,-2.19,6,6
1772481915.307049,8008177,1.42,-1.56,-0.02,-132.12,-77.37,71.37,112.44,67.75,54.06,-0.02,0.26,-0.15,-5.00,-63.50,325.19,1.37,-2.44,-3.75,6,7
1772481915.348360,8008218,1.18,-1.19,-0.62,-136.37,-74.75,73.44,78.19,40.13,36.00,-0.02,0.06,-0.36,-4.81,-63.44,325.31,0.37,-4.94,-3.25,6,7
1772481915.389423,8008260,0.71,-0.71,-0.56,-139.12,-73.50,75.06,44.88,21.25,12.44,0.08,-0.03,0.13,-4.56,-63.25,325.44,0.06,-6.37,-0.81,5,8
1772481915.431628,8008302,0.45,-0.60,-0.36,-140.87,-72.87,76.19,27.06,11.50,5.62,0.13,-0.08,-0.02,-4.44,-63.13,325.44,-0.75,0.06,-1.69,6,8
1772481915.470182,8008340,0.20,-0.49,-0.31,-142.56,-72.62,77.12,10.50,3.56,-2.37,0.05,0.01,0.00,-4.31,-63.13,325.50,-0.31,0.44,-1.06,6,8
1772481915.510029,8008380,0.17,-0.17,-0.21,-144.06,-72.62,77.62,1.94,4.37,-6.75,-0.04,-0.08,0.04,-4.31,-63.13,325.50,-0.44,-0.56,-0.06,7,8
1772481915.550920,8008421,-0.07,-0.20,-0.17,-145.06,-72.56,77.94,2.31,3.62,-0.94,0.06,0.00,0.12,-4.25,-63.06,325.50,-0.37,-1.25,-0.81,6,8
1772481915.592092,8008462,0.19,-0.02,-0.20,-145.75,-72.44,77.94,-2.62,6.37,-3.31,0.05,-0.05,0.15,-4.19,-63.00,325.50,0.00,-1.00,-0.19,6,7
1772481915.634343,8008504,0.05,0.25,-0.13,-146.37,-72.31,77.94,1.44,3.12,-1.69,0.00,0.00,0.19,-4.19,-62.94,325.56,0.75,-0.88,-0.37,6,7
1772481915.677708,8008548,0.33,-0.16,-0.24,-146.69,-72.25,78.00,-1.00,-0.44,-1.94,0.06,-0.03,-0.07,-4.12,-63.00,325.56,0.19,1.19,-0.88,5,7
1772481915.719343,8008589,0.36,-0.13,-0.20,-146.81,-72.44,78.00,-4.12,-3.62,-3.56,0.04,-0.01,-0.01,-4.12,-63.00,325.56,-0.31,-0.75,0.50,6,7
1772481915.759194,8008629,0.11,0.12,-0.04,-146.69,-72.69,78.00,-3.69,-7.31,-4.25,0.05,0.03,-0.06,-4.12,-63.00,325.56,-0.69,0.88,0.37,5,6
1772481915.800341,8008671,-0.13,0.08,0.10,-146.56,-72.94,78.12,-0.50,-4.31,-2.31,0.02,-0.02,0.04,-4.12,-63.00,325.56,0.19,0.25,0.50,6,5
1772481915.840909,8008711,0.05,0.08,0.05,-146.31,-73.06,78.12,0.31,-4.50,-0.06,0.03,0.11,-0.08,-4.12,-63.00,325.56,0.44,1.31,0.37,5,4
1772481915.881347,8008751,-0.09,0.00,0.02,-146.06,-73.25,78.19,-1.44,-3.50,-1.87,0.05,0.02,0.01,-4.19,-63.06,325.56,0.13,0.50,-0.06,4,5
1772481915.920792,8008791,0.03,0.07,0.05,-146.12,-73.37,78.19,-1.69,-0.88,-1.87,0.03,0.00,0.00,-4.19,-63.06,325.56,0.44,0.25,-0.19,3,5
1772481915.961166,8008831,0.16,-0.08,-0.03,-146.06,-73.44,78.25,0.37,-2.50,-0.44,0.04,0.03,-0.05,-4.19,-63.06,325.56,-0.37,0.06,0.25,4,5
1772481916.001694,8008872,-0.10,-0.01,0.05,-145.81,-73.50,78.25,-0.94,-2.56,0.31,0.07,0.00,0.05,-4.19,-63.06,325.56,0.50,-0.06,0.06,3,5
1772481916.042348,8008913,0.03,0.00,0.01,-145.75,-73.56,78.19,-0.88,-1.37,-0.94,0.04,0.02,-0.09,-4.19,-63.06,325.56,-0.13,1.44,0.50,3,4
1772481916.083288,8008953,0.11,0.00,-0.01,-145.56,-73.69,78.25,-0.56,-3.37,-0.31,0.06,0.00,0.00,-4.19,-63.06,325.56,-0.56,0.00,-0.06,4,4
1772481916.122335,8008992,0.06,-0.09,0.01,-145.19,-73.81,78.25,-1.00,-4.44,0.44,0.04,0.07,-0.03,-4.19,-63.06,325.50,-0.62,0.31,-0.25,4,3
1772481916.162111,8009032,-0.21,0.11,0.13,-144.81,-74.00,78.25,-1.25,-4.50,-1.44,0.00,0.01,0.10,-4.12,-63.06,325.50,-0.56,-0.06,-0.06,5,4
1772481916.203076,8009073,-0.04,-0.09,0.08,-144.69,-74.06,78.25,0.19,-0.81,0.13,0.03,-0.02,-0.09,-4.12,-63.13,325.50,-0.69,1.44,-0.69,4,4
1772481916.244343,8009115,0.05,-0.03,0.03,-144.56,-74.06,78.19,-2.81,-1.06,0.56,0.07,-0.08,-0.06,-4.06,-63.13,325.50,-0.69,0.13,0.13,5,5
1772481916.286194,8009156,0.12,0.03,0.02,-144.37,-74.12,78.00,-3.75,-0.88,0.00,0.00,0.06,-0.06,-4.12,-63.13,325.44,-1.31,-0.25,0.88,4,6
1772481916.326338,8009196,0.49,-0.13,-0.25,-144.06,-74.19,77.81,-4.37,-4.50,-0.56,-0.01,0.07,-0.13,-4.06,-63.13,325.37,-1.19,0.00,0.19,4,6
1772481916.365168,8009235,3.07,-2.01,-1.89,-142.69,-74.56,77.44,-21.56,-21.06,-2.56,-0.35,0.12,-0.64,-4.12,-63.19,325.31,-1.50,1.81,2.94,5,7
1772481916.406736,8009277,2.73,-0.93,-1.22,-136.62,-76.87,76.19,-76.25,-108.56,-40.25,0.34,0.14,0.00,-4.12,-63.25,325.25,-2.69,-4.75,-0.06,5,7
1772481916.449656,8009320,-1.61,-0.12,0.59,-121.69,-81.06,75.12,-80.50,-100.44,-42.25,0.36,-0.66,1.18,-4.00,-62.94,325.06,-5.12,-4.75,2.56,5,8
1772481916.491422,8009362,-2.51,0.79,0.87,-173.75,-83.69,73.44,-66.00,-45.13,-20.12,0.17,-0.17,0.86,-4.31,-63.00,324.75,-3.44,4.94,8.00,4,7
1772481916.532685,8009403,-0.66,0.96,0.62,-5.81,-84.12,72.00,-34.31,-8.44,-5.94,-0.14,0.19,0.56,-4.75,-63.31,324.44,-0.06,9.88,3.94,4,8
1772481916.571903,8009442,-0.33,0.83,0.71,-5.69,-84.19,71.37,-14.94,-11.63,-1.44,-0.04,0.13,-0.03,-5.06,-63.75,324.37,1.31,12.31,2.12,5,8
1772481916.610818,8009481,-0.89,0.40,0.71,-5.62,-84.25,71.25,-2.87,-8.38,-2.75,0.26,-0.27,-0.14,-5.25,-64.12,324.31,-1.06,8.56,2.19,5,8
1772481916.652148,8009522,0.09,0.15,0.42,-5.69,-84.19,71.31,6.12,6.50,3.87,0.01,0.11,-0.19,-5.56,-64.37,324.12,-1.37,6.00,3.94,6,7
1772481916.692825,8009563,-0.58,0.44,0.56,-5.81,-84.06,71.37,8.44,5.94,2.69,0.08,0.29,-0.23,-5.81,-64.56,324.00,1.31,2.00,1.00,6,5
1772481916.734173,8009605,-0.67,0.05,0.78,-5.94,-84.00,71.75,19.00,18.81,4.87,-0.02,0.11,-0.11,-5.94,-64.62,324.00,0.44,3.06,1.25,8,6
1772481916.772882,8009643,-1.30,0.31,1.28,-173.56,-83.50,72.25,27.31,32.06,14.56,0.09,-0.05,-0.21,-6.12,-64.81,323.94,0.37,2.50,1.25,8,5
1772481916.812075,8009683,0.13,-0.29,0.72,-113.06,-82.06,72.44,39.38,53.56,29.87,-0.11,0.24,-0.44,-6.37,-64.94,323.87,0.88,3.25,1.06,8,5
1772481916.853348,8009724,0.76,-0.14,0.23,-121.50,-80.12,72.62,38.81,42.25,30.00,-0.01,0.19,-0.41,-6.37,-65.00,323.94,0.13,-1.44,-2.00,8,5
1772481916.894662,8009765,0.82,-0.13,-0.11,-125.69,-78.69,72.94,31.37,24.81,20.12,0.00,0.00,-0.30,-6.19,-65.00,323.94,-2.81,-5.75,-2.37,8,5
1772481916.935731,8009806,0.71,0.00,-0.21,-127.25,-77.81,73.37,23.12,10.94,13.69,0.10,0.00,-0.08,-5.81,-64.81,324.00,-2.37,-4.62,-2.75,7,5
1772481916.975336,8009846,-0.01,0.02,0.01,-127.62,-77.44,73.75,15.63,2.25,6.50,-0.02,-0.05,0.21,-5.50,-64.69,324.06,-2.81,-3.75,-3.31,7,5
1772481917.014636,8009885,0.19,-0.11,-0.27,-128.19,-77.31,74.19,7.69,2.31,-0.81,0.01,-0.05,0.12,-5.12,-64.56,324.06,-2.56,-2.44,-2.37,7,5
1772481917.055354,8009925,0.08,0.08,-0.23,-128.75,-77.37,74.44,2.62,-1.12,-1.81,0.09,-0.15,0.12,-4.81,-64.44,324.19,0.44,-4.81,-2.87,6,5
1772481917.095739,8009966,0.03,0.16,-0.16,-128.81,-77.31,74.50,3.50,0.44,1.19,0.06,-0.23,0.31,-4.56,-64.19,324.31,0.19,-5.00,-1.56,9,5
1772481917.136156,8010006,-0.15,0.15,-0.18,-129.25,-77.12,74.56,4.69,4.75,1.62,0.09,-0.18,0.41,-4.31,-63.94,324.37,-0.19,-3.19,-0.75,7,5
1772481917.175811,8010046,0.14,0.02,-0.30,-130.12,-76.94,74.62,4.19,5.87,1.56,0.06,-0.02,0.19,-4.19,-63.81,324.37,0.31,-0.13,-1.00,7,6
1772481917.215698,8010086,0.23,0.01,-0.29,-131.00,-76.75,74.69,1.25,5.69,-1.62,0.04,-0.04,0.04,-4.12,-63.81,324.44,0.69,0.25,0.19,8,5
1772481917.256468,8010127,0.18,0.03,-0.15,-131.87,-76.69,74.75,0.31,2.31,-2.25,0.01,-0.06,0.06,-4.12,-63.75,324.44,0.25,-0.25,0.19,9,5
1772481917.297638,8010168,0.09,-0.04,-0.04,-132.12,-76.69,74.87,2.69,0.37,0.37,0.05,-0.07,-0.01,-4.19,-63.75,324.44,-0.62,0.56,1.31,9,6
1772481917.338976,8010210,0.04,0.03,0.13,-132.06,-76.62,74.87,2.12,0.06,2.12,0.01,0.01,-0.10,-4.31,-63.75,324.31,-0.75,0.25,2.50,9,7
1772481917.377863,8010248,0.06,0.06,0.18,-131.94,-76.56,74.94,2.50,1.00,1.69,0.02,0.06,-0.06,-4.56,-63.69,324.19,-1.25,-1.81,3.25,9,7
1772481917.416912,8010287,-0.07,0.20,0.18,-131.81,-76.50,74.94,1.44,2.19,0.88,0.10,0.04,0.07,-4.69,-63.63,324.06,0.13,-4.37,2.56,9,7
1772481917.457700,8010328,-0.08,0.26,0.14,-132.19,-76.44,74.94,2.56,5.44,-1.31,0.09,0.04,0.07,-4.87,-63.44,324.00,1.56,-0.88,1.25,8,7
1772481917.498909,8010369,-0.10,-0.02,0.17,-133.06,-76.31,75.12,7.37,6.37,-1.12,0.12,0.02,-0.03,-5.06,-63.44,324.00,0.44,1.06,1.31,6,7
1772481917.541059,8010412,-0.29,0.15,0.24,-134.06,-76.12,75.44,8.31,7.62,1.00,0.13,0.07,0.29,-5.12,-63.44,323.94,0.88,-0.88,0.50,5,7
1772481917.581795,8010452,0.17,0.21,0.23,-135.37,-75.81,75.81,14.44,13.88,1.75,0.03,0.19,-0.04,-5.25,-63.50,323.94,0.75,3.31,0.69,6,6
1772481917.621427,8010492,-0.82,-0.27,0.25,-136.62,-75.50,76.37,15.75,11.13,1.75,0.05,-0.04,-0.02,-5.19,-63.56,324.00,1.12,-2.31,-2.00,5,6
1772481917.662210,8010532,-0.08,-0.88,-0.13,-138.44,-75.12,76.81,3.94,16.69,-0.56,0.02,-0.09,0.06,-5.06,-63.56,324.06,0.75,-1.56,-1.62,5,6
1772481917.704745,8010575,-0.38,-0.57,0.11,-140.00,-74.62,76.62,-7.69,22.19,0.13,0.02,-0.09,0.11,-5.00,-63.50,324.12,0.50,-0.31,0.56,5,7
1772481917.746362,8010617,0.52,0.25,-0.27,-142.37,-73.81,75.87,-13.81,22.12,-4.06,0.09,0.21,-0.16,-5.12,-63.56,324.00,-1.19,2.12,1.94,5,5
1772481917.787590,8010658,0.76,0.23,-0.42,-143.81,-73.44,75.50,-7.19,9.81,-5.06,-0.01,0.09,-0.03,-5.12,-63.63,324.00,-0.56,0.81,-1.37,4,5
1772481917.826851,8010697,0.93,-0.10,-0.65,-143.81,-73.50,75.37,-3.00,-5.56,-0.25,0.12,0.07,-0.17,-5.06,-63.63,324.00,-1.31,-0.62,-1.44,5,5
1772481917.865652,8010736,0.48,-0.83,-0.46,-142.75,-73.81,75.25,-6.06,-10.88,2.12,0.07,-0.14,-0.09,-4.87,-63.50,324.00,-0.50,-3.19,-1.19,5,6
1772481917.907699,8010778,1.76,-1.35,-1.15,-140.31,-74.31,74.50,-25.25,-25.56,1.94,-0.09,-0.05,-0.18,-4.87,-63.50,324.00,-1.69,-0.25,1.06,5,6
1772481917.948917,8010819,2.47,-1.66,-1.12,-133.69,-75.94,73.00,-62.50,-72.62,-11.81,0.02,0.24,-0.16,-4.87,-63.50,323.87,-1.44,-2.31,-1.12,5,5
1772481917.989971,8010860,1.00,-0.94,-0.25,-119.31,-79.06,70.94,-100.50,-107.25,-35.75,0.07,-0.08,-0.01,-4.75,-63.44,323.87,-3.06,-2.69,-2.06,5,7
1772481918.029055,8010899,-1.26,-0.70,0.87,-94.06,-81.75,68.62,-116.00,-99.56,-35.38,0.17,-0.41,0.55,-4.44,-63.25,323.94,-1.94,-5.37,-1.37,5,7
1772481918.067969,8010938,-1.33,1.05,0.92,-68.37,-82.37,65.81,-105.56,-53.94,-25.94,0.12,-0.12,0.64,-4.31,-63.13,323.87,-2.50,-1.37,1.69,4,7
1772481918.108974,8010979,-1.39,1.48,1.12,-54.50,-82.31,63.88,-57.13,-25.37,-10.31,0.11,0.10,0.40,-4.44,-63.19,323.69,-3.87,3.50,3.94,4,8
1772481918.150368,8011020,-0.96,1.10,0.83,-48.25,-82.12,62.69,-32.38,-9.81,-3.75,0.08,0.22,-0.14,-4.56,-63.31,323.50,-2.44,4.37,1.25,4,8
1772481918.192015,8011062,-0.11,0.76,0.33,-46.63,-82.12,62.13,-13.25,-2.75,-2.87,0.13,0.05,0.01,-4.50,-63.44,323.50,-0.25,1.25,-0.75,4,8
1772481918.230834,8011101,-0.10,0.34,0.30,-44.88,-82.12,62.13,-1.56,-2.50,-4.50,0.00,0.01,0.09,-4.50,-63.44,323.50,-0.50,0.94,0.37,3,8
1772481918.269594,8011140,0.17,0.12,0.07,-44.00,-82.25,62.25,0.13,-1.94,-4.31,0.08,0.00,-0.14,-4.50,-63.56,323.50,0.62,4.12,1.56,3,9
1772481918.310541,8011181,0.13,0.07,-0.01,-41.88,-82.37,62.56,-0.75,-3.50,-8.94,0.02,0.00,-0.10,-4.75,-63.69,323.44,3.00,3.31,0.44,3,8
1772481918.351077,8011221,0.21,-0.05,0.08,-39.13,-82.44,62.94,1.56,-3.56,-8.44,0.03,-0.08,-0.15,-4.94,-63.81,323.44,0.75,3.37,2.19,4,9
1772481918.391442,8011262,-0.05,-0.13,0.09,-36.88,-82.44,63.25,1.87,-5.87,-4.31,0.02,-0.02,-0.18,-5.12,-63.94,323.37,-1.31,2.19,1.50,4,8
1772481918.430474,8011301,-0.16,-0.02,0.14,-35.50,-82.31,63.38,2.50,-4.56,-0.69,0.03,0.04,0.04,-5.12,-64.00,323.31,-1.75,0.56,0.75,4,8
1772481918.469366,8011340,-0.27,-0.04,0.12,-34.81,-82.19,63.50,3.69,-4.56,0.44,0.08,0.03,0.02,-5.06,-64.00,323.25,-3.00,1.37,0.50,3,7
1772481918.510340,8011381,-0.15,-0.11,0.02,-34.69,-82.06,63.56,0.56,-1.31,2.44,0.14,0.05,0.05,-5.00,-64.00,323.12,-2.56,1.75,-1.12,4,7
1772481918.551555,8011422,-0.01,0.02,-0.08,-34.88,-82.00,63.44,-4.56,-0.44,0.69,0.06,0.03,0.06,-4.81,-64.06,323.12,-1.25,0.69,-1.62,4,7
1772481918.591927,8011462,0.00,0.34,0.02,-34.56,-82.00,63.19,-7.56,-1.37,-0.75,0.04,0.03,0.09,-4.62,-64.06,323.19,-0.13,0.25,-1.50,5,7
1772481918.631164,8011501,0.01,0.19,0.03,-33.63,-82.00,63.06,-3.69,-1.75,-2.62,0.04,-0.02,-0.04,-4.62,-64.06,323.25,-0.44,1.37,-0.31,5,7
1772481918.671379,8011542,-0.10,-0.04,0.01,-33.13,-82.00,63.06,-2.87,-0.50,-2.06,0.05,-0.01,0.09,-4.62,-64.06,323.25,-0.56,1.12,0.88,5,7
1772481918.711994,8011583,0.00,-0.11,-0.03,-32.19,-82.12,63.00,-7.56,1.37,-4.37,0.01,0.00,0.06,-4.62,-64.12,323.19,0.00,2.56,0.69,6,7
1772481918.752828,8011623,0.00,-0.13,-0.16,-30.31,-82.25,62.81,-14.56,1.19,-7.44,-0.05,-0.02,0.00,-4.69,-64.25,323.19,0.25,1.87,-0.25,6,6
1772481918.793861,8011664,0.22,0.24,-0.08,-27.50,-82.50,62.56,-18.56,1.62,-9.69,0.31,-0.01,0.29,-4.62,-64.31,323.25,-0.19,1.69,-1.00,5,6
1772481918.832789,8011703,-0.07,0.46,0.04,-24.69,-82.69,62.44,-10.06,0.13,-7.62,0.00,0.03,0.19,-4.56,-64.31,323.25,-0.25,-0.25,-1.94,5,6
1772481918.871755,8011742,-0.02,0.16,0.01,-23.81,-82.69,62.44,0.37,-0.62,-2.12,0.03,-0.08,0.15,-4.31,-64.31,323.31,-1.62,1.19,-1.50,6,6
1772481918.913065,8011783,0.14,-0.15,-0.11,-24.00,-82.62,62.50,2.69,-2.19,2.62,0.08,-0.05,-0.07,-4.25,-64.37,323.31,-1.25,1.44,0.19,6,5
1772481918.954440,8011825,0.01,0.17,0.02,-24.50,-82.44,62.38,-0.19,-3.87,2.62,0.05,-0.02,0.02,-4.25,-64.37,323.25,-0.81,-0.25,1.56,7,5
1772481918.996462,8011867,0.06,0.27,0.05,-24.62,-82.31,62.31,1.62,-3.25,1.19,0.04,0.11,-0.03,-4.37,-64.37,323.12,-1.44,0.75,2.00,8,5
1772481919.035101,8011906,0.01,0.37,0.02,-24.81,-82.12,62.38,3.69,-3.69,0.00,0.03,0.09,0.00,-4.37,-64.37,323.12,0.00,0.62,0.13,8,5
1772481919.074362,8011945,-0.24,0.09,0.06,-24.81,-82.00,62.56,7.37,-3.44,-1.12,0.01,-0.01,0.10,-4.37,-64.37,323.19,-0.25,-0.75,-0.69,8,3
1772481919.116579,8011987,-0.26,-0.14,0.04,-24.44,-81.94,62.81,5.62,-1.37,-1.94,0.04,-0.03,0.03,-4.31,-64.31,323.19,-0.62,-0.25,-0.25,7,4
1772481919.159104,8012029,-0.19,0.06,0.12,-23.81,-82.00,63.06,2.75,1.81,-3.06,0.03,-0.02,-0.05,-4.31,-64.31,323.12,-1.19,-0.13,1.69,6,4
1772481919.201756,8012072,-0.02,0.09,0.05,-23.62,-82.12,63.25,2.62,3.44,-0.81,0.06,-0.05,-0.03,-4.44,-64.31,323.06,-0.75,-1.00,2.37,8,4
1772481919.242548,8012113,-0.13,0.27,0.08,-24.37,-82.25,63.38,3.31,3.87,-0.19,0.08,0.02,0.04,-4.62,-64.25,322.94,0.94,-4.44,1.12,8,5
1772481919.282006,8012152,-0.03,0.09,0.06,-25.25,-82.44,63.50,5.87,5.00,-0.25,0.01,0.01,0.00,-4.62,-64.06,322.94,-0.56,-1.87,1.12,8,5
1772481919.322650,8012193,-0.58,0.28,0.25,-26.12,-82.62,63.69,5.25,6.37,-0.37,0.10,-0.01,-0.04,-4.69,-64.12,322.87,-1.31,1.25,0.37,7,6
1772481919.363554,8012234,-1.40,1.17,0.78,-29.00,-83.06,64.00,19.87,19.87,5.12,0.08,0.06,0.17,-4.62,-64.06,322.87,0.31,-0.94,-0.94,8,6
1772481919.404702,8012275,-2.13,1.54,1.51,-4.19,-83.75,64.81,59.75,45.50,26.50,0.27,-0.10,0.39,-4.62,-64.00,322.81,-3.69,-1.31,2.75,9,5
1772481919.445734,8012316,-0.92,0.15,1.25,-6.06,-83.56,66.00,100.81,74.44,56.56,0.02,0.20,-0.11,-4.69,-64.06,322.69,-0.06,5.06,0.31,11,5
1772481919.485249,8012356,1.11,-0.66,0.55,-104.00,-81.31,67.37,105.44,92.00,57.06,-0.09,0.27,-0.13,-4.62,-64.12,322.75,3.44,0.69,-4.31,12,5
1772481919.524577,8012395,1.79,-1.04,-0.51,-120.19,-78.31,68.94,91.50,72.94,43.13,-0.03,0.11,-0.32,-4.44,-64.12,323.00,2.94,-1.75,-4.87,13,5
1772481919.565815,8012436,1.14,-0.91,-0.71,-127.44,-76.37,70.50,54.38,36.44,16.44,0.09,-0.01,-0.16,-4.25,-64.12,323.19,1.25,-2.00,-2.69,14,5
1772481919.607700,8012478,0.82,-0.80,-0.76,-132.06,-75.50,71.69,27.50,26.56,-0.19,0.08,-0.24,0.04,-4.12,-64.06,323.31,1.19,-0.31,-1.37,13,5
1772481919.649933,8012520,0.07,-0.31,-0.37,-135.00,-75.00,72.37,13.81,15.19,0.06,-0.01,-0.10,0.14,-4.19,-64.06,323.25,0.25,1.00,2.50,13,5
1772481919.691115,8012562,0.28,0.09,-0.31,-136.69,-74.69,72.87,12.56,9.13,0.13,0.01,0.13,-0.05,-4.37,-64.06,323.19,0.75,0.56,1.12,12,4
1772481919.730460,8012601,0.46,-0.04,-0.41,-138.06,-74.37,73.44,17.81,5.81,1.50,-0.01,0.01,-0.06,-4.44,-64.06,323.19,1.69,-1.50,-1.31,13,6
1772481919.770796,8012641,0.33,-0.05,-0.36,-139.12,-74.12,74.19,18.12,-0.62,2.56,0.06,-0.03,0.00,-4.37,-63.94,323.31,1.50,-2.31,-1.81,10,6
1772481919.813034,8012683,0.73,-0.17,-0.65,-139.87,-74.00,74.94,15.63,-3.25,1.56,0.00,-0.04,0.08,-4.31,-63.81,323.37,1.56,-3.81,-0.37,9,7
1772481919.854832,8012725,1.16,-1.13,-1.07,-139.31,-74.31,75.56,0.19,-18.56,0.25,-0.06,0.06,-0.23,-4.37,-63.75,323.44,1.75,-1.87,0.69,7,6
1772481919.896095,8012766,2.42,-1.83,-1.55,-135.62,-75.44,75.19,-30.25,-50.38,-8.94,-0.10,0.02,-0.19,-4.62,-63.69,323.37,1.44,-0.69,3.06,6,6
1772481919.935240,8012805,2.77,-2.49,-1.03,-124.62,-78.06,73.94,-79.87,-104.81,-24.25,0.13,0.15,-0.19,-4.81,-63.75,323.31,-0.06,0.13,1.37,6,7
1772481919.973990,8012844,0.81,-1.37,0.46,-96.87,-81.25,71.50,-132.44,-138.56,-42.25,0.15,-0.04,0.18,-4.81,-63.63,323.31,-0.56,-3.31,-0.56,5,6
1772481920.015847,8012886,-1.35,-0.20,1.04,-56.00,-81.75,68.87,-130.25,-116.44,-38.06,0.08,-0.07,0.10,-4.87,-63.50,323.19,-3.62,0.06,3.94,5,6
1772481920.056892,8012927,-3.04,1.56,1.82,-32.75,-80.31,65.87,-118.62,-53.25,-22.62,0.10,-0.37,0.38,-4.87,-63.38,323.06,0.13,-2.31,1.87,5,6
1772481920.098058,8012968,-1.36,1.38,1.29,-23.06,-79.56,63.81,-67.75,-25.37,-14.56,0.02,0.30,0.34,-5.06,-63.44,322.94,-2.25,0.37,4.12,7,6
1772481920.137306,8013008,-0.99,1.30,0.89,-18.00,-79.44,62.56,-41.56,3.12,-9.75,0.02,0.19,-0.01,-5.19,-63.56,322.81,-1.94,2.87,0.69,7,4
1772481920.177018,8013048,0.18,0.83,0.21,-16.44,-79.87,62.00,-17.87,6.75,-5.69,0.08,0.12,0.00,-5.12,-63.63,322.75,0.37,0.06,-0.37,9,4
1772481920.218714,8013089,0.24,0.62,0.04,-15.38,-80.19,61.88,-5.19,8.38,-4.00,0.16,0.00,-0.02,-5.19,-63.63,322.81,1.50,-1.19,-1.25,11,3
1772481920.260692,8013131,-0.17,0.30,0.01,-15.06,-80.25,62.13,9.31,-1.25,-2.12,0.11,-0.08,0.01,-5.19,-63.56,322.81,1.44,-0.06,0.81,13,3
1772481920.302337,8013173,-0.11,0.29,0.00,-15.63,-80.31,62.63,19.87,3.31,1.12,0.06,0.02,0.01,-5.37,-63.56,322.81,1.00,1.50,1.94,14,3
1772481920.342099,8013213,-0.10,0.00,0.04,-17.44,-80.44,63.25,25.44,3.12,3.81,0.02,0.20,0.03,-5.56,-63.63,322.75,-0.56,1.94,1.44,13,3
1772481920.381491,8013252,-0.04,-0.44,0.02,-19.50,-80.50,63.75,16.37,3.81,3.44,0.13,0.17,-0.15,-5.56,-63.81,322.69,-1.94,4.75,-0.94,13,3
1772481920.422457,8013293,-0.45,-0.06,0.21,-20.56,-80.75,64.19,12.31,10.25,1.00,0.03,0.00,-0.07,-5.37,-63.88,322.69,-1.56,2.06,-3.00,14,4
1772481920.465059,8013335,-0.34,0.04,0.16,-22.69,-81.12,64.44,12.19,14.38,6.19,0.03,-0.05,0.03,-5.06,-63.94,322.75,-2.62,0.13,-2.81,14,4
1772481920.507233,8013378,-0.26,0.42,0.32,-27.00,-81.56,64.56,19.87,20.81,11.75,0.09,-0.11,0.05,-4.75,-63.94,322.81,-2.50,-0.88,-1.56,11,4
1772481920.548280,8013419,-0.56,0.05,0.16,-36.38,-82.12,64.75,24.00,23.81,17.44,0.10,0.05,-0.04,-4.62,-63.94,322.75,-1.25,0.37,-1.75,11,5
1772481920.587213,8013458,-0.08,0.64,0.18,-47.13,-82.50,64.94,31.87,34.81,18.81,-0.08,0.00,0.20,-4.50,-63.88,322.81,0.06,-1.87,-0.94,9,5
1772481920.627426,8013498,-0.99,1.46,0.71,-61.50,-82.62,65.44,51.50,36.69,26.25,0.13,-0.10,0.07,-4.44,-63.88,322.81,0.44,1.50,-1.12,7,6
1772481920.668984,8013539,-0.71,1.42,1.16,-82.00,-81.87,66.62,95.06,63.25,45.69,-0.03,0.06,0.26,-4.44,-63.81,322.87,-0.06,-2.44,-0.75,6,6
1772481920.709666,8013580,0.13,0.22,0.65,-101.81,-79.69,68.50,119.00,64.94,57.88,0.16,0.09,-0.11,-4.31,-63.81,322.94,1.56,1.00,-3.87,6,7
1772481920.751619,8013622,0.58,-0.36,0.52,-114.81,-76.81,70.81,123.94,67.75,53.94,-0.07,0.10,0.08,-4.00,-63.75,323.25,3.31,-3.69,-4.44,7,8
1772481920.790903,8013661,1.02,-1.39,-0.41,-123.31,-74.19,73.19,95.81,48.25,37.50,0.05,-0.02,-0.28,-3.62,-63.75,323.50,2.12,-0.19,-4.69,6,9
1772481920.829833,8013700,0.69,-1.13,-0.67,-128.62,-72.62,75.19,57.75,35.56,11.19,0.01,-0.10,-0.17,-3.44,-63.75,323.69,2.19,-2.50,-2.69,7,10
1772481920.871366,8013742,0.49,-0.61,-0.42,-132.44,-71.87,76.50,29.25,22.31,-0.56,0.01,-0.16,0.04,-3.37,-63.69,323.81,1.87,-2.19,-0.25,7,11
1772481920.913124,8013784,0.45,-0.30,-0.36,-135.06,-71.44,77.37,16.62,13.00,-4.00,-0.07,0.02,-0.04,-3.37,-63.69,323.81,0.06,0.13,1.00,10,11
1772481920.955566,8013826,-0.04,-0.28,-0.18,-136.37,-71.37,78.12,11.00,2.94,-3.62,0.00,-0.02,-0.10,-3.44,-63.69,323.81,0.75,0.25,0.56,10,10
1772481920.996364,8013867,0.39,-0.47,-0.27,-137.56,-71.25,78.69,5.31,10.56,-4.12,0.00,-0.02,-0.08,-3.44,-63.63,323.81,0.37,-1.50,0.06,10,9
1772481921.035489,8013906,0.35,-0.13,-0.32,-138.75,-71.19,78.87,-0.31,4.50,-5.94,0.06,0.02,-0.02,-3.50,-63.63,323.81,-0.37,-1.69,1.31,9,9
1772481921.075902,8013946,0.26,-0.06,-0.29,-139.69,-71.12,79.06,0.25,4.12,-3.69,0.10,-0.01,0.17,-3.56,-63.50,323.75,-1.12,-2.75,1.69,8,9
1772481921.118083,8013988,0.14,-0.13,-0.28,-140.31,-71.06,79.12,-2.75,0.19,-4.31,0.09,0.03,0.13,-3.69,-63.38,323.69,0.44,-0.75,1.62,7,9
1772481921.159950,8014030,0.16,-0.20,-0.31,-141.00,-71.19,79.19,-5.37,-1.25,-6.81,0.00,0.02,0.12,-3.81,-63.38,323.69,1.37,0.50,1.00,6,8
1772481921.200828,8014071,0.04,-0.22,-0.12,-141.31,-71.37,79.19,-5.75,-1.31,-4.19,0.02,0.03,0.04,-3.94,-63.38,323.62,0.44,-0.06,1.62,6,8
1772481921.239920,8014110,-0.12,-0.28,0.02,-141.56,-71.56,79.12,-8.25,-1.37,-5.50,0.09,0.02,0.02,-4.12,-63.38,323.56,0.25,-0.56,3.12,6,6
1772481921.278666,8014149,-0.16,0.03,0.05,-141.94,-71.69,78.87,-12.75,3.50,-7.06,0.10,0.07,0.15,-4.37,-63.31,323.44,1.12,-0.31,3.00,5,6
1772481921.320619,8014191,0.07,0.10,-0.04,-142.69,-71.69,78.50,-12.13,6.87,-9.25,0.00,0.11,0.00,-4.62,-63.38,323.37,1.87,0.81,1.31,4,7
1772481921.361629,8014232,0.26,0.01,-0.06,-143.44,-71.69,78.25,-9.19,4.94,-7.06,0.00,0.16,-0.09,-4.69,-63.38,323.37,0.13,1.75,0.62,3,8
1772481921.402916,8014273,0.30,-0.33,-0.14,-143.94,-71.75,78.06,-7.06,0.31,-5.44,0.10,0.20,-0.03,-4.69,-63.44,323.37,-1.31,1.12,0.75,3,9
1772481921.441964,8014312,0.17,-0.21,-0.17,-144.00,-71.87,77.94,-6.19,-2.44,-3.50,0.00,0.06,0.03,-4.81,-63.50,323.25,-0.69,1.19,1.19,3,10
1772481921.482674,8014353,0.38,-0.24,-0.22,-143.62,-72.00,77.75,-6.25,-7.37,1.37,0.09,0.04,-0.13,-4.81,-63.56,323.25,-0.06,1.06,-0.50,3,11
1772481921.524332,8014394,1.25,-1.48,-0.78,-142.37,-72.31,77.37,-13.44,-15.38,1.00,-0.01,0.05,-0.33,-4.81,-63.56,323.19,-1.25,0.37,0.94,4,12
1772481921.566003,8014436,2.95,-2.24,-1.38,-138.62,-73.37,76.06,-50.50,-43.75,-6.12,0.04,0.03,-0.43,-4.87,-63.69,323.12,-2.50,1.94,1.19,3,12
1772481921.608921,8014479,1.85,-1.72,0.12,-128.19,-76.56,73.50,-131.00,-124.56,-44.31,0.06,-0.05,0.55,-4.75,-63.56,323.06,-1.19,-5.37,-1.81,4,11
1772481921.649703,8014520,-1.26,0.05,1.48,-104.75,-80.56,70.50,-147.25,-125.62,-52.50,0.23,-0.07,0.34,-4.62,-63.50,323.00,-3.69,0.88,-1.06,3,10
1772481921.689033,8014559,-2.21,1.15,1.62,-71.06,-82.25,67.56,-125.56,-56.31,-33.06,-0.01,-0.23,0.60,-4.62,-63.38,322.81,-1.94,-2.75,3.31,3,9
1772481921.728574,8014599,-1.95,1.63,1.30,-52.88,-82.50,64.81,-76.62,-30.94,-19.00,0.07,0.00,0.00,-4.75,-63.38,322.69,0.13,-2.06,1.62,2,8
1772481921.771342,8014642,-1.40,1.68,1.34,-42.75,-82.25,63.31,-33.94,-1.50,-6.56,0.13,0.10,0.26,-5.00,-63.31,322.56,0.13,0.06,3.69,2,8
1772481921.812763,8014683,-0.04,0.91,0.53,-41.63,-82.56,62.69,-5.81,5.75,-2.94,0.03,0.16,0.00,-5.25,-63.38,322.44,-0.37,2.50,2.25,4,7
1772481921.854045,8014725,0.12,0.12,0.28,-41.63,-82.75,62.88,5.25,1.62,-2.94,0.10,0.02,-0.07,-5.31,-63.44,322.31,-0.37,0.13,0.44,4,6
1772481921.894348,8014765,-0.15,-0.06,0.32,-41.94,-82.87,63.13,4.12,7.50,-2.69,0.06,-0.12,-0.11,-5.37,-63.44,322.31,0.44,1.62,0.19,4,5
1772481921.934381,8014805,-0.06,0.29,0.25,-43.19,-83.12,63.38,8.13,4.31,-1.12,0.04,0.17,-0.03,-5.37,-63.50,322.37,1.00,0.75,0.00,4,4
1772481921.975604,8014846,-0.07,-0.13,0.17,-4.69,-83.19,63.69,9.56,6.12,0.13,0.00,-0.05,-0.07,-5.44,-63.56,322.37,1.06,2.81,-0.81,5,3
1772481922.016128,8014887,-0.24,-0.18,0.20,-4.75,-83.37,63.94,6.12,9.56,1.69,0.00,0.04,0.00,-5.44,-63.69,322.44,0.56,1.06,-1.12,5,4
1772481922.057982,8014929,-0.32,0.12,0.44,-4.81,-83.69,64.06,7.69,15.69,1.94,0.00,-0.11,-0.16,-5.37,-63.69,322.44,-1.50,0.81,-0.75,7,4
1772481922.097132,8014967,-0.94,0.37,0.72,-5.12,-83.94,64.25,20.06,24.44,10.50,0.18,-0.05,0.21,-5.19,-63.69,322.37,-1.94,-1.62,-0.13,7,5
1772481922.135820,8015006,-1.63,1.07,1.32,-5.87,-83.87,64.69,47.25,47.81,24.87,0.07,-0.07,0.20,-5.25,-63.63,322.25,-3.94,0.44,4.94,8,5
1772481922.177780,8015048,-1.43,0.59,1.29,-99.25,-82.50,65.62,76.87,72.56,43.00,0.03,0.13,0.16,-5.56,-63.63,322.00,-0.56,-0.94,2.06,8,4
1772481922.220367,8015091,1.47,-0.28,0.39,-119.87,-79.62,66.81,91.00,87.19,44.94,0.04,0.30,-0.31,-5.62,-63.69,322.00,1.75,0.88,-0.88,8,4
1772481922.262589,8015133,1.36,-0.81,-0.23,-130.12,-76.75,68.44,70.69,54.00,29.62,0.08,0.05,-0.16,-5.50,-63.63,322.19,2.25,-2.69,-2.81,8,4
1772481922.304600,8015175,1.05,-0.80,-0.46,-136.06,-74.69,70.31,46.88,28.62,12.44,0.01,0.00,-0.21,-5.37,-63.56,322.31,1.50,-1.31,-2.50,9,5
1772481922.343455,8015214,0.18,-0.63,-0.25,-138.37,-73.87,71.37,25.00,15.81,5.69,0.09,-0.13,0.02,-5.25,-63.50,322.37,-0.13,-2.12,-0.88,9,6
1772481922.382004,8015253,0.04,0.14,0.02,-139.81,-73.56,71.94,11.06,8.69,-2.00,0.00,-0.05,0.32,-5.25,-63.44,322.44,1.50,0.00,-1.06,7,6
1772481922.425099,8015295,0.43,-0.34,-0.24,-140.87,-73.37,72.37,9.81,6.31,-0.69,-0.08,0.00,-0.22,-5.19,-63.56,322.50,-0.56,3.31,-0.25,8,6
1772481922.466600,8015337,-0.04,0.00,-0.07,-141.75,-73.37,72.94,9.69,0.44,-1.75,-0.01,-0.02,0.02,-5.12,-63.56,322.50,0.06,-1.62,-1.50,6,5
1772481922.506975,8015378,0.25,0.11,-0.01,-142.12,-73.25,73.37,11.00,3.56,4.19,0.16,0.03,0.07,-5.00,-63.44,322.62,0.75,-1.69,-1.87,6,5
1772481922.546229,8015417,0.03,-0.11,-0.05,-142.37,-73.00,73.75,10.88,3.37,3.56,0.17,-0.10,0.16,-4.81,-63.38,322.69,0.31,-1.50,-2.12,5,5
1772481922.586689,8015457,0.23,0.13,-0.09,-142.87,-72.87,74.06,7.06,3.19,-0.37,-0.05,-0.02,0.07,-4.69,-63.31,322.75,-0.06,-0.13,-0.56,5,5
1772481922.627569,8015498,-0.01,-0.02,0.00,-143.25,-72.81,74.37,9.19,0.37,1.56,0.09,-0.01,0.17,-4.69,-63.31,322.75,0.31,-0.25,-0.25,4,5
1772481922.668121,8015539,0.01,0.19,0.07,-143.50,-72.75,74.81,9.38,-0.44,0.50,0.00,0.05,-0.01,-4.69,-63.38,322.75,1.06,1.19,0.06,4,5
1772481922.708685,8015579,0.11,0.07,0.03,-143.75,-72.75,75.31,13.63,-1.06,2.69,0.08,0.04,-0.04,-4.75,-63.38,322.75,0.50,0.81,0.19,3,4
1772481922.748189,8015619,-0.01,0.04,0.21,-143.81,-72.75,76.00,17.75,-2.94,4.19,0.03,0.04,0.13,-4.81,-63.38,322.75,1.19,0.00,-0.13,3,3
1772481922.788195,8015659,-0.03,-0.25,0.13,-143.94,-72.69,76.69,14.38,-0.56,2.69,0.07,0.06,-0.04,-4.87,-63.44,322.81,1.19,0.31,0.00,4,4
1772481922.829293,8015700,-0.11,-0.20,0.13,-144.37,-72.69,77.19,8.94,2.00,-0.06,0.01,-0.01,0.00,-4.87,-63.44,322.81,0.81,0.19,0.19,4,4
1772481922.871007,8015741,0.12,-0.33,-0.03,-144.81,-72.69,77.50,3.94,1.75,-0.06,0.05,0.06,-0.07,-4.94,-63.44,322.81,0.81,0.31,-0.88,4,5
1772481922.912911,8015783,0.14,-0.17,0.00,-145.12,-72.69,77.62,0.00,-0.81,-1.00,0.01,0.00,-0.06,-4.94,-63.44,322.81,-0.13,0.06,0.00,4,6
1772481922.953704,8015824,0.39,-0.35,-0.18,-145.12,-72.75,77.69,-2.37,-6.69,-0.37,-0.06,0.05,-0.17,-4.94,-63.44,322.81,-0.69,0.25,-0.25,4,6
1772481922.993296,8015864,1.47,-1.31,-0.73,-144.00,-73.12,77.44,-19.19,-23.37,-0.13,0.01,-0.07,-0.28,-4.87,-63.44,322.81,0.19,0.31,0.06,4,6
1772481923.034011,8015904,2.02,-2.01,-0.61,-139.94,-74.44,76.37,-63.38,-70.50,-15.44,0.02,0.17,-0.31,-4.87,-63.50,322.81,-1.00,-3.25,-0.37,4,7
1772481923.076175,8015946,1.34,-1.40,0.35,-130.31,-77.50,74.31,-110.50,-102.00,-42.44,0.27,0.05,0.27,-4.69,-63.31,322.81,-1.44,-4.69,-1.94,5,7
1772481923.118093,8015988,-2.23,1.06,1.82,-103.62,-82.12,71.12,-125.81,-114.81,-53.31,0.06,-0.14,0.59,-4.50,-63.25,322.87,-1.25,-1.31,-1.12,5,8
1772481923.159450,8016030,-1.57,0.69,0.90,-6.06,-83.69,68.94,-101.69,-44.00,-30.50,0.00,-0.07,-0.07,-4.44,-63.31,322.81,-1.69,5.56,0.44,6,8
1772481923.199804,8016070,-1.25,1.22,0.86,-5.12,-84.00,66.81,-66.56,-28.75,-15.81,-0.04,-0.05,0.19,-4.44,-63.44,322.81,0.56,0.06,-0.06,7,7
1772481923.239673,8016110,-0.74,1.09,0.80,-4.50,-84.00,65.56,-37.63,-2.25,-8.13,0.05,0.03,0.10,-4.50,-63.38,322.75,-0.06,0.62,1.00,6,7
1772481923.281016,8016152,-0.08,0.91,0.42,-4.37,-84.19,64.87,-13.50,2.37,-1.00,0.11,0.11,-0.09,-4.56,-63.44,322.69,-0.69,1.25,1.37,7,6
1772481923.322587,8016193,-0.12,0.29,0.29,-4.37,-84.25,64.87,5.56,2.81,0.00,0.01,0.03,0.01,-4.75,-63.44,322.62,-0.13,0.19,1.37,9,6
1772481923.364594,8016235,0.23,-0.06,0.01,-4.44,-84.37,65.12,10.63,6.75,1.69,0.12,0.00,-0.13,-4.75,-63.50,322.62,0.94,1.44,-0.25,10,6
1772481923.404838,8016275,0.06,-0.12,0.12,-4.44,-84.44,65.50,10.00,1.19,-1.06,0.04,-0.01,0.01,-4.81,-63.56,322.62,0.75,1.00,0.06,11,6
1772481923.443641,8016314,-0.47,0.18,0.29,-4.44,-84.50,65.87,6.50,0.00,-2.12,0.01,0.01,-0.04,-4.87,-63.63,322.62,0.50,1.69,0.44,11,5
1772481923.484767,8016355,-0.44,-0.08,0.35,-4.44,-84.62,66.19,12.56,11.06,3.37,-0.01,-0.03,0.01,-4.87,-63.63,322.62,-0.56,0.75,0.56,13,6
1772481923.526282,8016397,-0.94,0.62,0.57,-4.69,-84.69,66.44,17.25,18.12,9.06,0.16,-0.07,-0.02,-4.87,-63.69,322.62,-0.44,0.19,0.94,14,5
1772481923.567814,8016439,-0.50,0.51,0.61,-5.25,-84.56,66.87,42.75,36.06,20.25,-0.04,0.04,0.05,-5.00,-63.63,322.56,-1.37,0.56,1.75,14,6
1772481923.609581,8016480,-1.05,1.36,1.31,-173.37,-83.25,68.00,75.31,59.75,36.19,0.08,-0.03,0.11,-5.00,-63.69,322.50,0.50,0.31,-0.37,12,6
1772481923.650442,8016521,0.02,-0.18,0.61,-117.69,-80.62,69.62,98.81,67.69,51.25,0.00,0.10,-0.02,-5.06,-63.69,322.50,1.00,0.00,-0.56,14,6
1772481923.689578,8016560,0.68,-0.42,0.29,-127.37,-77.62,71.31,93.19,64.31,45.88,0.01,0.01,0.00,-5.00,-63.63,322.56,2.12,-1.00,-1.62,13,8
1772481923.731398,8016602,1.22,-1.10,-0.26,-133.19,-75.19,73.06,72.25,46.69,31.12,0.06,0.17,-0.22,-4.94,-63.63,322.69,1.56,-0.62,-2.94,12,9
1772481923.772839,8016643,0.71,-0.71,-0.36,-137.06,-73.69,74.50,45.00,30.81,11.31,0.09,-0.08,-0.05,-4.87,-63.69,322.81,1.00,-2.62,-0.75,12,11
1772481923.815604,8016686,0.53,-0.38,-0.38,-139.69,-72.94,75.62,25.56,16.56,1.87,0.00,-0.02,0.14,-4.87,-63.56,322.81,0.88,-2.75,0.50,11,10
1772481923.854761,8016725,0.41,-0.23,-0.34,-141.31,-72.56,76.44,15.31,8.06,-1.00,0.21,-0.12,0.15,-4.94,-63.50,322.81,1.00,-1.19,0.00,12,11
1772481923.894082,8016764,-0.08,-0.31,-0.09,-142.50,-72.44,77.12,12.75,5.50,-1.19,-0.04,-0.12,0.26,-5.00,-63.38,322.87,1.37,-2.12,-0.25,11,11
1772481923.935729,8016806,0.20,-0.26,-0.25,-143.81,-72.19,77.56,6.50,10.00,-3.25,-0.02,0.08,-0.11,-5.00,-63.44,322.81,-0.94,2.56,1.81,9,12
1772481923.977570,8016848,0.04,-0.20,-0.20,-144.94,-72.06,77.94,3.75,6.00,-2.56,0.02,-0.03,0.07,-5.00,-63.44,322.81,-0.19,-1.37,-0.88,8,11
1772481924.019494,8016890,0.62,0.07,-0.38,-145.87,-71.94,78.06,-3.06,1.50,-3.62,0.06,-0.05,-0.08,-5.00,-63.44,322.81,-0.13,0.19,-0.37,8,11
1772481924.061522,8016932,0.10,0.07,-0.11,-146.00,-72.12,78.12,0.06,-3.94,-1.69,0.12,-0.07,0.14,-4.94,-63.38,322.81,-1.19,-1.06,0.44,7,11
1772481924.102461,8016973,0.12,-0.04,-0.10,-145.81,-72.25,78.19,0.25,-4.19,-0.81,0.07,0.04,0.00,-4.94,-63.38,322.81,-0.06,0.44,0.44,6,10
1772481924.141821,8017012,-0.27,-0.02,0.14,-145.75,-72.37,78.31,-1.87,-2.00,-2.37,0.04,-0.02,0.12,-5.00,-63.38,322.81,0.81,0.06,1.25,5,9
1772481924.182707,8017053,-0.23,0.09,0.18,-146.00,-72.44,78.31,-0.19,1.25,-2.06,-0.01,0.01,0.03,-5.19,-63.44,322.75,0.62,1.69,1.12,4,8
1772481924.223652,8017094,-0.21,0.09,0.15,-146.31,-72.37,78.31,-1.00,4.25,-1.06,0.04,0.03,-0.02,-5.25,-63.44,322.69,0.56,0.25,0.94,4,8
1772481924.263854,8017135,-0.08,0.08,0.21,-146.69,-72.19,78.31,1.69,8.00,-0.25,0.08,0.06,-0.04,-5.31,-63.44,322.69,0.81,0.31,0.06,4,7
1772481924.304024,8017175,0.08,-0.04,0.04,-147.31,-71.87,78.31,1.44,9.94,-0.75,0.00,0.06,-0.11,-5.37,-63.50,322.69,0.69,0.37,-0.56,4,8
1772481924.344461,8017215,0.36,-0.12,-0.17,-148.06,-71.62,78.25,-1.37,7.44,-1.75,0.07,0.00,-0.14,-5.31,-63.50,322.75,0.19,-0.31,-0.56,4,9
1772481924.385697,8017256,0.08,0.01,-0.01,-148.44,-71.50,78.19,-1.31,3.94,-0.62,-0.03,-0.06,0.01,-5.31,-63.44,322.75,-0.81,-0.19,-0.06,4,9
1772481924.427120,8017298,0.25,0.18,-0.10,-148.50,-71.37,78.06,-1.25,1.31,0.94,0.03,0.14,-0.04,-5.31,-63.50,322.69,-0.69,0.56,0.06,4,9
1772481924.469657,8017340,-0.12,-0.04,-0.01,-148.50,-71.44,78.06,-0.37,-2.31,-1.12,0.03,-0.10,0.08,-5.25,-63.50,322.75,-0.25,-0.44,-1.31,5,8
1772481924.510688,8017381,0.06,0.01,0.02,-148.37,-71.44,78.12,0.44,-0.62,1.50,0.06,-0.04,-0.04,-5.19,-63.50,322.75,-0.88,0.37,-0.31,5,8
1772481924.549792,8017420,0.04,-0.04,-0.02,-148.25,-71.44,78.06,-2.25,-0.19,0.13,0.03,-0.04,0.02,-5.12,-63.50,322.75,-1.50,0.06,0.00,5,7
1772481924.589849,8017460,-0.05,0.21,0.06,-148.12,-71.44,77.94,-2.06,0.94,-0.31,0.02,0.01,0.07,-5.12,-63.50,322.69,-0.62,-0.62,0.13,5,6
1772481924.631951,8017502,0.06,0.02,-0.01,-148.19,-71.37,77.81,0.19,2.69,0.37,0.08,-0.03,0.02,-5.12,-63.44,322.69,0.06,-0.06,-0.56,6,6
1772481924.674188,8017544,-0.02,-0.02,-0.03,-148.31,-71.25,77.75,-1.00,2.31,-0.37,0.04,-0.02,0.04,-5.12,-63.44,322.69,0.25,-0.37,-0.62,6,6
1772481924.714890,8017585,0.04,0.03,-0.02,-148.44,-71.19,77.69,-2.19,2.75,-0.06,0.03,0.00,0.06,-5.06,-63.44,322.69,-0.06,0.00,-0.19,5,5
1772481924.755570,8017626,0.09,0.01,-0.07,-148.50,-71.12,77.56,-2.12,1.50,-1.00,0.02,0.01,0.00,-5.06,-63.44,322.69,0.13,-0.44,-0.56,5,4
1772481924.795514,8017666,0.04,0.07,0.02,-148.56,-71.06,77.44,-1.75,1.75,-0.13,0.05,-0.01,0.13,-5.06,-63.44,322.75,0.56,0.06,-0.62,5,3
1772481924.836719,8017707,0.14,0.03,0.00,-148.62,-71.06,77.37,-1.06,1.37,-1.25,0.06,0.00,-0.05,-5.00,-63.50,322.75,-0.19,0.50,-0.44,5,4
1772481924.878011,8017748,0.13,0.05,-0.06,-148.75,-71.00,77.37,0.25,1.25,-0.06,0.01,-0.01,0.00,-5.00,-63.50,322.75,-0.06,0.69,-0.69,5,4
1772481924.919375,8017790,0.03,0.05,-0.03,-148.69,-71.00,77.44,2.56,-1.69,1.75,0.03,0.11,-0.02,-4.94,-63.50,322.75,-0.25,-0.50,-1.44,5,4
1772481924.958189,8017829,0.03,-0.18,-0.07,-148.56,-71.00,77.50,1.94,-2.56,0.69,0.00,-0.08,-0.01,-4.81,-63.50,322.87,-0.44,0.37,-1.56,5,4
1772481924.998027,8017868,0.44,-0.50,-0.30,-148.31,-71.19,77.50,-3.62,-5.62,0.44,0.00,-0.12,-0.18,-4.75,-63.50,322.87,-1.06,-0.13,-0.31,5,5
1772481925.039986,8017910,1.46,-1.06,-0.92,-147.12,-71.56,77.06,-17.37,-17.62,-1.06,-0.08,-0.07,-0.29,-4.69,-63.50,322.75,-2.37,0.31,2.06,4,5
1772481925.081446,8017952,2.33,-1.91,-1.03,-143.50,-73.00,75.87,-62.38,-73.81,-16.81,0.11,0.20,-0.34,-4.81,-63.56,322.62,-3.00,-1.94,1.19,4,6
1772481925.123685,8017994,1.51,-1.37,0.11,-135.12,-76.25,73.87,-107.69,-106.31,-41.44,0.27,0.07,0.39,-4.62,-63.44,322.56,-2.56,-4.25,-0.81,4,7
1772481925.166144,8018036,-2.38,0.48,1.81,-113.00,-81.44,70.81,-127.19,-114.94,-55.31,0.03,-0.12,0.57,-4.44,-63.38,322.62,-2.31,-0.69,-0.19,4,7
1772481925.204755,8018075,-1.86,0.94,1.14,-6.12,-83.75,68.56,-104.50,-66.31,-39.94,0.07,-0.08,0.15,-4.44,-63.50,322.56,-2.44,6.37,1.19,4,7
1772481925.243584,8018114,-2.25,1.39,1.44,-5.06,-84.44,66.50,-65.25,-19.75,-15.50,0.03,-0.29,0.37,-4.50,-63.63,322.44,0.25,-0.31,1.81,5,7
1772481925.285890,8018156,-0.60,0.97,0.76,-4.81,-84.50,65.56,-29.31,0.81,-2.81,0.03,0.16,0.05,-4.69,-63.69,322.37,-0.75,2.75,3.56,7,7
1772481925.326903,8018198,0.15,0.47,0.23,-4.69,-84.75,64.62,-15.00,8.06,-1.69,0.06,0.13,-0.23,-4.81,-63.75,322.31,-0.31,2.62,0.19,8,7
1772481925.368569,8018239,0.33,0.55,0.15,-4.50,-85.00,64.44,-7.25,3.19,-7.37,0.10,-0.06,-0.05,-4.81,-63.81,322.31,1.69,-0.75,-0.88,9,7
1772481925.407418,8018278,0.17,0.16,0.07,-4.19,-85.31,64.56,-1.31,4.94,-6.31,0.04,-0.11,-0.07,-4.87,-63.81,322.37,-0.19,1.87,1.00,9,7
1772481925.446306,8018317,0.01,0.05,0.22,-4.00,-85.50,64.81,5.56,-0.31,-2.62,-0.03,-0.02,-0.03,-4.94,-63.88,322.31,-0.06,1.62,1.00,9,6
1772481925.487822,8018358,0.02,-0.06,0.22,-4.00,-85.44,65.12,8.50,-2.62,-0.31,0.02,0.07,-0.13,-5.06,-63.94,322.25,-1.37,1.81,1.56,10,5
1772481925.529000,8018399,-0.25,0.06,0.30,-3.94,-85.44,65.44,5.50,0.50,-1.75,0.04,-0.01,-0.10,-5.12,-64.00,322.12,-2.87,-0.25,1.62,10,5
1772481925.569188,8018440,-0.24,0.12,0.24,-3.94,-85.50,65.69,8.19,3.37,0.88,0.22,0.13,0.03,-5.06,-64.00,322.00,-1.37,0.56,-0.37,10,4
1772481925.608103,8018479,-0.23,0.07,0.09,-4.12,-85.44,65.94,12.13,8.19,2.31,0.06,0.02,0.04,-5.06,-64.00,322.00,-2.31,-1.50,1.06,10,4
1772481925.647023,8018518,-0.19,0.07,0.00,-4.19,-85.50,66.37,13.63,8.31,0.81,0.07,-0.16,0.21,-5.06,-63.94,321.81,-4.12,1.00,2.12,9,4
1772481925.688587,8018559,0.12,0.02,0.00,-4.31,-85.50,66.75,13.13,8.44,4.19,-0.01,0.00,-0.24,-5.25,-63.94,321.44,-5.50,-8.13,5.94,8,4
1772481925.729929,8018601,-0.15,0.41,0.12,-4.56,-85.31,67.00,14.50,5.81,7.62,0.09,-0.19,0.12,-5.19,-63.44,321.37,1.12,-4.37,-1.56,8,4
1772481925.770740,8018642,0.00,0.07,0.02,-4.81,-85.06,67.31,16.62,10.94,5.87,0.13,-0.04,0.00,-5.12,-63.38,321.44,1.19,0.75,-1.12,8,4
1772481925.809981,8018681,0.44,-0.24,-0.26,-174.94,-84.94,67.69,12.31,12.81,1.31,0.07,-0.04,-0.07,-5.06,-63.44,321.50,-1.44,2.44,0.19,8,3
1772481925.849088,8018720,0.40,-0.36,-0.24,-175.00,-84.94,68.00,5.44,8.69,-0.13,-0.01,0.05,-0.19,-5.12,-63.50,321.37,-2.62,2.81,1.62,8,4
1772481925.890435,8018761,-0.06,0.27,0.11,-175.00,-84.94,68.06,1.56,3.25,1.69,0.16,0.21,-0.06,-5.12,-63.63,321.31,0.37,2.00,-1.06,9,4
1772481925.932151,8018803,-0.52,0.72,0.46,-174.81,-84.69,68.19,13.13,6.62,6.81,0.04,0.00,0.22,-4.94,-63.69,321.50,3.00,-0.37,-4.62,9,4
1772481925.974081,8018845,-0.91,0.46,0.52,-174.37,-84.19,68.56,29.31,18.37,16.25,0.16,-0.12,-0.06,-4.75,-63.81,321.75,1.75,5.69,-3.44,9,4
1772481926.013781,8018884,-0.93,0.74,0.90,-113.94,-83.06,69.19,47.13,37.69,25.75,-0.02,-0.20,0.28,-4.44,-63.81,321.87,-0.44,0.50,-1.87,8,5
1772481926.052759,8018923,-0.90,0.54,0.89,-123.37,-80.94,70.06,68.12,53.81,39.88,-0.01,0.05,-0.05,-4.31,-63.94,321.94,-0.31,1.69,-1.12,11,6
1772481926.093912,8018965,0.25,0.09,0.55,-130.75,-78.12,71.19,79.94,65.06,45.19,0.03,0.13,0.00,-4.19,-63.94,322.00,0.81,-0.56,-1.62,12,7
1772481926.136041,8019007,0.96,-0.30,0.02,-136.31,-75.25,72.56,72.06,54.13,36.00,0.00,-0.01,-0.20,-4.12,-63.94,322.12,1.62,-0.37,-2.12,11,8
1772481926.177770,8019048,0.89,-0.81,-0.52,-139.81,-73.12,73.94,49.06,32.56,23.12,0.02,-0.08,-0.24,-4.00,-63.94,322.25,2.62,-0.50,-3.62,11,8
1772481926.218699,8019089,0.54,-0.30,-0.33,-142.31,-71.69,75.12,27.56,21.75,8.50,-0.02,-0.23,0.06,-3.81,-63.88,322.44,2.94,-2.75,-2.31,10,8
1772481926.260384,8019131,0.40,-0.13,-0.42,-143.69,-71.12,75.81,18.50,9.50,3.44,0.00,-0.04,0.02,-3.81,-63.81,322.50,0.56,-0.81,-0.13,10,8
1772481926.300691,8019171,0.03,-0.36,-0.25,-144.44,-70.94,76.44,12.00,5.00,0.44,0.06,-0.04,0.12,-3.81,-63.81,322.50,0.75,-2.12,-1.06,9,8
1772481926.341756,8019212,0.16,-0.19,-0.26,-145.44,-70.75,76.81,4.81,8.44,-3.94,-0.06,-0.13,0.13,-3.81,-63.75,322.56,0.75,-0.31,0.56,9,7
1772481926.382503,8019253,0.14,-0.09,-0.24,-146.25,-70.56,77.00,1.19,6.62,-0.94,0.14,0.05,0.02,-3.81,-63.75,322.56,-0.37,0.88,1.00,10,7
1772481926.423094,8019294,0.03,0.10,-0.13,-146.94,-70.31,77.00,-0.06,8.00,-1.69,0.03,-0.03,0.24,-3.87,-63.69,322.50,0.81,-0.94,0.25,10,7
1772481926.462869,8019334,0.29,-0.06,-0.15,-147.50,-70.06,76.94,0.37,6.69,-0.50,0.06,-0.02,-0.07,-3.87,-63.69,322.56,0.25,0.81,0.50,7,6
1772481926.502937,8019373,0.14,-0.14,-0.13,-147.81,-69.87,76.94,-0.81,2.94,-0.13,0.07,0.04,0.00,-3.87,-63.69,322.50,-0.06,-0.69,0.75,6,6
1772481926.543863,8019415,0.23,0.00,-0.03,-148.06,-69.81,76.81,-5.31,2.75,-3.44,0.02,0.04,-0.06,-3.94,-63.69,322.50,0.25,0.81,1.56,5,5
1772481926.585329,8019456,-0.01,0.09,0.03,-148.37,-69.87,76.69,-4.56,0.25,-5.25,0.00,0.06,-0.01,-4.12,-63.69,322.44,0.06,0.06,1.25,5,6
1772481926.626848,8019498,0.09,0.14,0.02,-148.44,-69.94,76.69,1.12,-1.94,-1.25,0.02,0.11,-0.06,-4.12,-63.69,322.44,0.50,-0.50,-0.25,6,7
1772481926.666030,8019537,0.00,-0.11,-0.02,-148.50,-70.06,76.81,1.62,-1.81,-0.81,0.08,0.05,0.03,-4.12,-63.69,322.44,0.69,-0.69,-0.88,5,6
1772481926.704810,8019575,-0.12,-0.02,0.05,-148.56,-70.12,76.94,0.19,-0.88,-1.69,0.05,0.00,0.06,-4.12,-63.69,322.50,0.44,-0.69,-0.62,5,8
1772481926.746772,8019617,-0.01,-0.08,-0.04,-148.81,-70.12,77.00,0.00,2.06,-1.81,0.01,0.03,0.04,-4.06,-63.63,322.50,-0.44,-0.44,-0.19,6,9
1772481926.788581,8019659,0.01,-0.04,-0.06,-149.00,-70.06,77.00,0.37,1.37,-0.19,0.05,0.00,0.04,-4.06,-63.63,322.50,-0.62,-0.44,-0.56,6,9
1772481926.830257,8019701,0.20,-0.10,-0.12,-149.06,-70.06,77.00,0.62,2.06,0.31,0.04,0.00,0.00,-4.06,-63.63,322.50,-0.25,0.25,-0.56,6,9
1772481926.872516,8019743,0.19,0.11,-0.12,-149.12,-70.00,77.00,-0.81,-1.31,-0.06,0.11,0.13,-0.06,-4.00,-63.69,322.50,-0.75,-0.06,-0.19,6,8
1772481926.911297,8019782,0.08,-0.24,-0.04,-149.00,-70.12,77.06,1.25,-3.69,0.69,0.00,-0.03,0.07,-3.94,-63.69,322.50,-0.44,-0.13,-1.37,5,7
1772481926.950566,8019821,0.46,-0.43,-0.31,-148.44,-70.25,76.94,-4.62,-7.31,2.31,0.05,-0.05,-0.13,-3.87,-63.69,322.56,-0.94,0.06,-0.56,5,6
1772481926.992295,8019863,1.50,-1.12,-0.93,-147.50,-70.50,76.56,-19.19,-20.81,0.56,-0.13,-0.05,-0.19,-3.87,-63.69,322.50,-1.25,0.81,1.12,5,5
1772481927.033749,8019904,2.06,-1.43,-0.94,-143.50,-72.12,75.12,-52.25,-54.88,-13.13,0.07,0.15,-0.27,-3.94,-63.81,322.37,-2.00,0.44,0.81,4,5
1772481927.075133,8019946,1.37,-1.28,-0.13,-136.62,-75.12,73.12,-95.44,-89.50,-35.88,0.04,-0.08,0.22,-3.87,-63.69,322.31,-2.62,-3.31,0.00,5,5
1772481927.114488,8019985,0.14,0.39,0.72,-124.56,-79.00,70.69,-120.00,-104.00,-52.63,0.20,-0.09,0.37,-3.75,-63.63,322.25,-2.44,-1.37,0.62,5,4
1772481927.153576,8020024,-2.24,0.79,1.34,-103.37,-82.50,68.69,-103.81,-90.44,-46.44,0.09,-0.25,0.24,-3.62,-63.56,322.12,-3.94,3.19,2.69,4,4
1772481927.195047,8020066,-1.64,1.04,0.96,-5.94,-83.94,66.75,-83.62,-37.19,-27.12,0.17,-0.19,0.25,-3.69,-63.69,322.06,0.31,0.94,2.62,3,4
1772481927.236453,8020107,-1.27,1.10,1.04,-5.12,-84.37,65.44,-40.69,-17.37,-13.63,0.01,-0.01,0.17,-3.87,-63.63,322.00,0.37,2.12,4.06,6,4
1772481927.278977,8020150,-0.18,0.56,0.33,-4.87,-84.62,64.69,-20.44,5.50,-3.12,0.00,0.18,-0.03,-4.19,-63.75,321.87,0.44,3.44,1.87,7,5
1772481927.318475,8020189,0.12,0.55,0.13,-4.75,-84.69,64.31,-8.31,-0.25,-3.25,0.06,0.10,-0.08,-4.31,-63.81,321.87,1.62,-0.37,0.69,7,5
1772481927.357012,8020228,0.33,0.28,0.01,-4.56,-84.87,64.37,0.88,4.00,-3.75,0.05,0.13,-0.09,-4.37,-63.81,321.81,-0.88,0.62,1.69,8,6
1772481927.399148,8020270,0.17,-0.13,0.02,-4.50,-85.00,64.69,5.37,-3.69,-2.56,0.10,0.10,-0.09,-4.44,-63.81,321.75,-0.06,1.19,0.13,8,6
1772481927.440757,8020311,0.23,-0.07,0.06,-4.37,-85.00,64.87,-0.13,-6.87,-3.44,0.04,0.03,-0.08,-4.50,-63.88,321.75,-0.06,1.56,0.25,8,7
1772481927.482450,8020353,-0.03,-0.02,0.13,-4.25,-84.94,65.00,-4.44,-8.75,-4.75,0.07,0.01,-0.11,-4.44,-63.88,321.75,-0.75,0.50,0.06,7,6
1772481927.524465,8020395,-0.29,0.06,0.28,-4.06,-84.94,65.00,-3.31,-6.00,-2.94,-0.01,0.07,0.04,-4.44,-63.88,321.75,-0.37,-0.13,-0.19,7,7
1772481927.565893,8020436,-0.17,-0.10,0.10,-3.94,-84.87,65.00,-3.50,-1.31,-1.19,0.03,-0.04,0.00,-4.44,-63.88,321.75,-0.19,-0.06,-1.12,7,6
1772481927.605634,8020476,-0.23,0.33,0.07,-3.81,-84.94,64.87,-7.19,2.50,-3.87,0.06,-0.05,0.12,-4.37,-63.88,321.81,0.13,-0.19,-1.06,7,5
1772481927.647052,8020518,0.02,0.36,0.10,-3.69,-85.19,64.87,-0.19,5.31,-1.62,-0.01,-0.14,0.07,-4.37,-63.88,321.75,-0.81,0.37,1.62,4,6
1772481927.688089,8020559,0.15,0.22,0.07,-3.75,-85.19,64.94,5.44,3.25,2.94,0.07,0.00,-0.15,-4.44,-63.88,321.69,-0.56,-0.31,2.12,3,5
1772481927.730961,8020602,-0.29,0.39,0.21,-3.94,-85.12,65.06,9.69,4.00,3.62,0.03,0.02,0.13,-4.69,-63.81,321.56,0.37,-2.94,2.56,5,6
1772481927.770040,8020641,-0.16,-0.06,0.17,-4.06,-85.19,65.31,11.31,10.31,2.75,0.10,0.01,-0.07,-4.81,-63.75,321.50,0.19,1.00,1.44,6,4
1772481927.808744,8020680,-0.03,0.07,0.11,-4.19,-85.37,65.50,7.19,13.50,1.19,0.06,0.04,-0.05,-4.87,-63.75,321.44,-0.25,0.44,0.44,6,4
1772481927.850543,8020721,-0.50,0.36,0.36,-4.25,-85.44,65.75,11.63,16.19,3.00,0.02,0.06,0.02,-4.87,-63.81,321.44,-0.44,0.44,0.31,6,4
1772481927.892442,8020763,-1.17,0.72,0.63,-4.56,-85.31,66.12,32.94,34.63,16.00,0.09,-0.11,0.11,-4.87,-63.81,321.44,0.56,0.06,-0.50,8,5
1772481927.933884,8020805,-0.77,0.99,0.85,-174.50,-84.37,66.81,60.38,48.50,31.31,0.02,0.01,0.13,-4.94,-63.75,321.50,1.56,-0.25,-0.69,7,4
1772481927.976196,8020847,-0.27,0.24,0.73,-118.94,-82.25,68.00,84.25,63.38,43.94,0.03,0.04,-0.04,-4.81,-63.81,321.56,1.00,0.94,-1.94,8,5
1772481928.015209,8020886,0.72,-0.58,0.10,-130.94,-78.75,69.94,84.37,59.44,42.31,0.04,0.13,-0.14,-4.75,-63.81,321.69,1.31,-0.31,-2.19,9,5
1772481928.054453,8020925,1.18,-0.86,-0.38,-136.00,-76.37,71.56,67.12,44.63,29.37,0.03,0.07,-0.24,-4.69,-63.81,321.75,0.69,-1.69,-1.69,10,4
1772481928.096512,8020967,0.87,-0.67,-0.49,-138.25,-75.25,72.56,40.81,20.06,14.44,0.02,0.01,-0.07,-4.56,-63.75,321.81,0.75,-2.94,-1.81,11,5
1772481928.137939,8021009,0.30,-0.43,-0.39,-140.12,-74.44,73.81,22.75,8.25,5.87,0.05,0.00,-0.11,-4.50,-63.69,321.87,0.25,-0.81,-1.06,10,5
1772481928.179386,8021050,0.22,-0.09,-0.26,-140.75,-74.25,74.37,13.50,2.37,2.62,0.08,-0.02,0.14,-4.44,-63.63,321.94,1.06,-1.37,-0.44,9,5
1772481928.219447,8021090,-0.10,-0.21,-0.12,-141.19,-74.12,74.87,10.00,2.25,0.88,0.00,-0.05,0.12,-4.44,-63.63,321.94,1.00,0.06,-0.31,9,5
1772481928.259320,8021130,0.00,-0.18,-0.13,-142.19,-73.94,75.19,7.37,7.81,0.44,0.07,-0.05,0.14,-4.44,-63.56,321.94,0.19,0.06,0.13,9,6
1772481928.300548,8021171,0.00,-0.09,-0.12,-143.00,-73.56,75.37,6.62,10.38,2.75,-0.03,-0.06,0.13,-4.44,-63.56,321.94,0.19,-0.25,-0.13,8,6
1772481928.342269,8021213,0.24,0.05,-0.17,-143.81,-73.12,75.37,2.44,11.81,2.31,0.07,0.05,-0.01,-4.44,-63.63,321.94,-0.44,0.88,0.31,9,6
1772481928.384126,8021255,0.17,-0.02,-0.18,-144.69,-72.81,75.37,2.19,7.12,-0.37,0.03,-0.01,-0.04,-4.44,-63.63,322.00,0.75,0.31,-1.00,8,5
1772481928.422984,8021294,0.25,0.03,-0.11,-145.12,-72.62,75.44,3.00,4.37,1.69,0.03,0.00,-0.11,-4.44,-63.63,322.00,-0.13,0.75,-0.19,7,5
1772481928.463219,8021334,0.24,-0.04,-0.07,-145.25,-72.50,75.44,1.87,0.81,1.44,-0.01,0.01,-0.06,-4.44,-63.63,322.00,-0.25,0.13,0.00,6,5
1772481928.504339,8021375,0.13,0.02,-0.01,-145.19,-72.50,75.50,0.31,-2.44,-0.25,0.04,0.04,-0.06,-4.44,-63.63,322.00,-0.31,0.19,0.75,5,5
1772481928.546096,8021417,0.09,0.00,-0.05,-145.00,-72.56,75.50,0.62,-2.87,0.44,0.02,0.02,0.00,-4.50,-63.63,322.00,-0.13,-0.37,0.62,4,4
1772481928.588402,8021459,0.05,0.05,-0.10,-144.81,-72.69,75.56,-1.06,-3.12,-0.62,0.06,0.05,0.03,-4.50,-63.63,321.94,0.25,-0.13,0.13,5,5
1772481928.629910,8021501,-0.01,0.08,0.00,-144.62,-72.81,75.56,-1.25,-2.37,-1.31,0.04,-0.01,0.05,-4.50,-63.63,321.94,0.25,-0.13,0.00,5,7
1772481928.670493,8021541,0.04,0.00,-0.02,-144.56,-72.87,75.56,0.25,-0.75,0.31,0.06,0.00,0.00,-4.50,-63.63,321.94,0.44,0.50,-0.31,4,7
1772481928.710719,8021582,0.08,0.06,-0.01,-144.44,-72.87,75.56,0.81,-0.69,0.88,0.02,0.03,0.03,-4.50,-63.63,321.94,0.31,0.25,-0.31,4,7
1772481928.751916,8021623,-0.01,0.01,0.03,-144.44,-72.87,75.62,1.37,-0.44,0.19,0.07,0.00,0.02,-4.50,-63.63,321.94,-0.06,0.50,-0.56,4,7
1772481928.793113,8021664,0.05,-0.09,-0.01,-144.50,-72.87,75.69,1.37,-0.44,0.50,-0.01,-0.06,-0.12,-4.50,-63.63,321.94,-0.13,1.19,-0.69,4,7
1772481928.834290,8021705,0.09,-0.03,-0.06,-144.37,-72.87,75.62,-2.00,-2.31,-0.19,0.05,0.12,-0.05,-4.50,-63.69,322.00,-0.13,0.00,-0.50,4,7
1772481928.873398,8021744,-0.05,-0.03,0.01,-144.25,-73.00,75.56,-4.94,-2.56,-3.37,0.03,-0.05,0.10,-4.44,-63.69,322.00,0.13,0.19,-1.25,4,6
1772481928.912388,8021783,0.13,-0.08,-0.07,-144.25,-73.12,75.44,-3.75,-1.37,-0.88,0.01,-0.08,0.01,-4.37,-63.69,322.00,-1.31,0.13,0.06,4,6
1772481928.953334,8021824,0.24,-0.22,-0.22,-143.94,-73.12,75.25,-5.69,-2.87,1.00,0.02,0.00,-0.05,-4.31,-63.69,322.00,-1.69,-0.06,0.44,3,7
1772481928.995181,8021866,0.56,-0.30,-0.35,-143.25,-73.31,74.81,-11.75,-7.81,0.56,0.01,0.01,-0.10,-4.25,-63.69,321.94,-1.25,0.06,0.69,3,5
1772481929.037193,8021908,1.55,-0.80,-0.74,-141.37,-73.81,74.19,-28.44,-29.19,-4.87,0.02,0.05,-0.13,-4.25,-63.69,321.87,-1.06,-0.62,-0.06,3,5
1772481929.076398,8021947,1.69,-0.96,-0.62,-137.06,-75.31,73.12,-47.50,-55.25,-14.63,0.02,0.04,-0.04,-4.12,-63.63,321.87,-1.81,-2.25,-1.12,3,4
1772481929.114896,8021985,1.14,-0.97,-0.02,-128.56,-78.00,71.75,-77.62,-84.44,-32.81,0.13,0.06,0.16,-4.06,-63.63,321.81,-2.56,1.12,0.00,2,3
1772481929.156851,8022027,-0.87,-0.05,0.76,-112.00,-81.19,70.00,-97.69,-94.75,-40.56,0.09,-0.16,0.18,-4.00,-63.56,321.81,-1.37,-0.94,0.69,2,3
1772481929.198622,8022069,-0.94,0.28,0.75,-6.81,-83.12,68.12,-90.44,-64.62,-28.50,-0.03,-0.18,0.09,-4.00,-63.50,321.69,-0.69,1.75,1.56,4,4
1772481929.240575,8022111,-1.53,1.16,0.90,-5.75,-83.62,66.06,-68.81,-38.69,-18.37,0.11,0.01,0.08,-4.12,-63.56,321.62,-0.50,-0.44,2.94,5,4
1772481929.282144,8022153,-0.69,0.87,0.76,-5.00,-83.31,64.37,-40.25,-18.37,-7.25,0.07,0.05,0.12,-4.25,-63.56,321.56,0.94,2.87,0.50,6,4
1772481929.321747,8022192,-0.51,0.89,0.49,-4.75,-83.25,63.56,-23.94,-6.06,-3.87,0.06,0.19,0.00,-4.31,-63.69,321.56,-0.19,3.31,-0.06,7,4
1772481929.360636,8022231,-0.12,0.41,0.30,-4.56,-83.25,63.25,-6.37,-1.56,-3.56,0.00,0.04,-0.12,-4.25,-63.81,321.56,0.62,2.19,-1.44,8,5
1772481929.402693,8022273,0.22,0.06,0.15,-4.44,-83.31,63.25,-0.31,1.44,-0.88,0.11,-0.03,-0.11,-4.19,-63.88,321.62,-0.62,0.31,-0.44,8,5
1772481929.443462,8022314,0.04,0.06,0.15,-4.44,-83.25,63.31,2.19,-5.56,-0.19,0.05,0.00,-0.13,-4.19,-63.88,321.62,-0.31,-0.37,0.88,8,4
1772481929.483983,8022355,-0.03,0.06,0.14,-41.06,-83.06,63.38,1.62,-3.50,-0.81,0.01,0.05,-0.06,-4.25,-63.88,321.56,0.44,0.37,0.50,7,4
1772481929.524311,8022395,0.02,0.18,0.12,-39.81,-83.06,63.50,-1.31,-3.00,-3.75,0.07,0.05,0.02,-4.25,-63.88,321.56,0.25,0.13,0.44,7,4
1772481929.564594,8022435,-0.10,0.19,0.18,-38.38,-83.00,63.56,0.31,-1.75,-3.56,0.00,0.01,0.04,-4.31,-63.88,321.56,0.13,0.06,-0.25,6,4
1772481929.605935,8022476,-0.07,0.00,0.03,-37.50,-83.00,63.75,2.44,-2.19,-2.37,0.01,-0.01,0.00,-4.25,-63.88,321.56,-0.37,-0.13,-0.19,6,3
1772481929.647418,8022518,-0.06,0.00,-0.02,-36.56,-83.00,63.88,-0.13,-1.00,-2.75,0.08,-0.03,0.09,-4.25,-63.88,321.56,-0.50,-0.31,-0.31,4,3
1772481929.688658,8022559,-0.06,0.02,-0.06,-35.69,-83.06,63.94,-2.19,-0.13,-2.19,0.05,0.01,0.07,-4.25,-63.88,321.56,-0.44,0.31,0.19,4,4
1772481929.727249,8022598,0.04,0.05,-0.10,-3.87,-83.12,63.94,-4.12,1.25,-3.37,0.09,0.00,0.00,-4.25,-63.88,321.56,-0.25,0.81,-0.06,3,4
1772481929.766395,8022637,0.08,0.06,-0.01,-3.75,-83.25,63.88,-5.12,0.56,-4.06,0.00,-0.04,0.01,-4.25,-63.94,321.56,0.31,0.56,0.37,3,4
1772481929.807135,8022678,0.05,0.08,-0.05,-3.56,-83.31,63.88,-5.56,-0.06,-3.75,0.00,0.14,0.00,-4.31,-64.00,321.56,0.00,1.87,0.56,2,4
1772481929.848915,8022719,-0.03,0.06,0.00,-3.37,-83.37,63.81,-5.94,-0.88,-4.62,0.00,-0.05,-0.04,-4.31,-64.00,321.56,0.50,0.94,-0.25,3,3
1772481929.890927,8022761,-0.02,0.16,0.08,-3.19,-83.44,63.75,-4.00,-0.25,-3.12,0.14,-0.20,0.14,-4.31,-64.00,321.62,2.25,-2.12,-2.62,3,4
1772481929.929938,8022801,0.06,0.15,0.09,-3.12,-83.50,63.69,-1.87,-0.25,-1.25,0.05,0.05,0.02,-4.31,-64.00,321.50,-1.37,0.00,1.00,3,5
1772481929.970669,8022841,-0.06,0.21,0.04,-3.12,-83.44,63.69,-0.06,-0.56,-0.94,0.02,0.07,0.02,-4.31,-64.06,321.50,-0.88,0.31,0.31,3,6
1772481930.010943,8022882,0.00,0.14,0.01,-3.12,-83.44,63.75,2.94,-0.19,-0.69,0.04,0.00,-0.01,-4.31,-64.00,321.50,-0.31,0.56,0.00,3,7
1772481930.052597,8022924,0.07,0.07,0.00,-3.12,-83.44,63.81,3.56,-1.00,0.19,0.00,0.00,0.00,-4.31,-64.06,321.50,-0.19,0.19,0.19,4,7
1772481930.095259,8022966,-0.03,0.15,0.02,-3.12,-83.37,63.94,3.00,-2.56,-0.50,0.00,-0.04,-0.04,-4.31,-64.06,321.44,-0.88,0.44,0.88,3,6
1772481930.135949,8023007,-0.11,0.07,0.07,-3.19,-83.31,64.06,2.62,-0.06,0.13,0.01,0.00,-0.02,-4.44,-64.06,321.37,-0.25,0.00,1.25,4,6
1772481930.174774,8023046,-0.04,0.16,0.11,-3.19,-83.31,64.12,1.62,1.06,-0.75,0.01,0.06,0.00,-4.50,-64.00,321.31,0.06,-0.37,1.50,4,5
1772481930.214172,8023085,-0.10,0.19,0.17,-3.12,-83.37,64.25,4.06,2.25,-1.56,0.01,0.03,-0.03,-4.62,-64.00,321.31,-0.25,-0.37,1.06,5,5
1772481930.255923,8023127,-0.11,0.05,0.16,-3.19,-83.44,64.50,6.25,4.31,0.62,0.06,0.01,0.05,-4.62,-64.00,321.25,-0.25,-1.00,0.19,6,6
1772481930.296794,8023168,-0.11,0.24,0.03,-3.31,-83.62,64.62,8.44,8.31,2.69,0.10,0.08,-0.03,-4.69,-64.00,321.25,0.19,1.06,-0.13,5,5
1772481930.337376,8023208,-0.36,0.02,0.13,-3.50,-83.81,64.87,13.69,11.31,4.81,0.00,0.05,0.00,-4.62,-64.06,321.31,-0.06,1.31,-1.81,6,5
1772481930.376397,8023247,-0.99,0.23,0.42,-3.87,-84.12,65.06,16.31,19.31,9.63,0.12,-0.13,-0.02,-4.50,-64.12,321.37,-0.25,0.88,-1.62,6,4
1772481930.416925,8023288,-1.90,1.01,1.24,-4.56,-84.50,65.19,33.50,48.88,23.37,0.09,-0.18,0.31,-4.44,-64.12,321.37,-0.44,0.69,0.56,7,4
1772481930.458390,8023329,-1.07,0.45,1.09,-5.94,-84.00,65.56,57.81,75.50,37.75,-0.03,0.14,-0.01,-4.50,-64.19,321.31,-0.62,2.87,-0.50,6,5
1772481930.499421,8023370,1.01,-0.57,0.23,-114.12,-81.81,66.12,63.25,85.00,38.25,-0.01,0.11,-0.15,-4.44,-64.31,321.37,0.75,0.94,-1.87,6,6
1772481930.541609,8023412,1.41,-0.63,-0.21,-127.81,-79.12,66.81,56.75,69.75,30.19,0.06,0.11,-0.29,-4.37,-64.31,321.50,1.50,-1.06,-2.19,5,6
1772481930.580402,8023451,0.99,-0.24,-0.29,-134.12,-77.06,67.62,42.44,44.69,21.12,0.06,0.00,-0.16,-4.25,-64.25,321.56,0.94,-1.87,-1.81,5,7
1772481930.619531,8023490,0.74,-0.12,-0.29,-137.56,-75.62,68.31,30.62,31.44,13.25,-0.05,-0.04,-0.15,-4.12,-64.19,321.62,0.94,-1.87,-2.00,6,8
1772481930.660894,8023532,0.27,-0.27,-0.26,-140.00,-74.81,69.00,20.25,18.00,3.62,0.04,-0.07,0.08,-4.00,-64.12,321.75,1.25,-2.31,-1.25,6,10
1772481930.703743,8023574,0.28,-0.18,-0.31,-141.69,-74.31,69.56,15.31,13.44,1.81,0.00,-0.06,0.15,-4.00,-64.06,321.81,-0.44,-0.19,0.25,7,9
1772481930.745905,8023617,0.20,0.14,-0.19,-143.00,-73.94,70.06,14.94,7.37,3.81,0.06,-0.02,0.05,-3.94,-64.12,321.75,-0.75,0.62,0.19,6,9
1772481930.787783,8023659,0.12,0.34,-0.12,-143.81,-73.50,70.62,17.81,9.56,6.31,0.09,0.07,0.07,-3.94,-64.12,321.75,-0.06,0.69,0.19,6,9
1772481930.829120,8023700,0.09,0.14,-0.16,-144.69,-72.94,71.44,24.69,8.00,8.25,0.01,0.04,0.09,-3.94,-64.12,321.81,0.19,-0.37,-1.19,6,9
1772481930.869759,8023740,0.23,-0.12,-0.15,-145.06,-72.50,72.25,26.31,5.81,11.69,0.11,-0.07,0.04,-3.87,-64.06,321.81,0.44,-0.37,-0.81,7,9
1772481930.911398,8023782,0.40,-0.14,-0.26,-145.44,-72.19,73.00,19.87,2.87,6.06,0.04,-0.05,-0.05,-3.81,-64.06,321.81,0.75,-1.31,0.37,7,7
1772481930.952641,8023823,0.47,-0.16,-0.33,-145.81,-72.06,73.62,15.44,-2.75,4.62,0.03,0.04,-0.06,-3.94,-64.00,321.81,0.25,-1.44,1.00,7,8
1772481930.994858,8023865,0.59,-0.59,-0.41,-145.87,-72.12,74.25,5.31,-10.81,-0.25,0.00,0.00,-0.13,-4.00,-64.00,321.81,1.50,-0.25,0.50,7,6
1772481931.034513,8023905,1.14,-0.98,-0.73,-144.87,-72.62,74.37,-15.13,-25.75,-5.25,-0.05,-0.02,-0.13,-4.12,-64.00,321.81,1.06,-1.19,1.62,6,6
1772481931.073481,8023944,2.14,-1.68,-0.97,-141.94,-74.06,73.81,-36.44,-52.00,-13.56,-0.03,0.10,-0.09,-4.31,-63.94,321.69,-1.00,-1.50,2.25,5,5
1772481931.114799,8023985,1.55,-1.12,-0.23,-134.62,-77.00,72.56,-89.12,-97.06,-41.44,0.25,0.06,0.05,-4.37,-63.88,321.62,-1.37,-1.81,1.19,5,6
1772481931.157609,8024028,-0.74,-0.81,0.81,-120.50,-80.87,70.81,-105.75,-101.81,-47.56,0.14,-0.15,0.37,-4.44,-63.69,321.50,-2.12,-3.37,1.75,5,7
1772481931.199160,8024070,-0.76,0.42,0.58,-173.62,-83.62,68.75,-99.12,-73.56,-38.56,0.01,0.00,0.07,-4.56,-63.75,321.37,-1.37,2.19,3.25,5,7
1772481931.240490,8024111,-1.44,1.21,0.89,-4.62,-84.62,66.31,-80.12,-41.63,-26.00,0.04,-0.05,0.15,-4.75,-63.75,321.19,0.19,-0.75,2.69,3,7
