host_time_s,t_ms,ax1,ay1,az1,roll1,pitch1,yaw1,gx1,gy1,gz1,ax2,ay2,az2,roll2,pitch2,yaw2,gx2,gy2,gz2,emg1,emg2
1771525239.666291,115425,0.29,0.01,-0.02,-121.62,-81.50,62.75,0.75,-1.19,-0.75,-0.07,-0.02,0.02,109.81,78.94,28.06,-0.19,-0.06,0.00,1,4
1771525239.667863,115615,0.25,0.02,-0.02,-120.75,-81.56,62.81,-0.37,0.00,-0.13,-0.08,-0.03,0.04,109.81,78.94,28.06,-0.13,-0.25,0.06,1,5
1771525239.669048,115805,0.23,-0.01,-0.05,-120.62,-81.56,62.81,-0.50,-0.62,-0.06,-0.10,-0.01,0.06,110.19,78.94,28.06,0.31,-0.81,-0.25,1,5
1771525239.669863,115996,0.24,0.04,0.00,-120.50,-81.56,62.75,-0.62,0.62,0.31,-0.09,-0.02,0.08,110.19,78.94,28.06,0.37,-0.69,0.13,1,5
1771525239.670610,116187,0.27,0.03,-0.08,-120.87,-81.56,62.75,-0.19,0.19,-0.62,-0.07,-0.03,0.04,110.12,78.94,28.06,0.00,0.37,-0.19,1,5
1771525239.671182,116377,0.24,0.03,-0.04,-120.69,-81.56,62.75,-1.00,-0.62,0.19,-0.08,-0.03,0.07,110.12,78.94,28.06,0.06,-0.19,-0.19,1,5
1771525239.671822,116568,0.26,0.00,-0.05,-120.69,-81.56,62.75,0.06,-0.06,0.37,-0.08,-0.01,0.03,110.31,78.87,28.06,0.19,-0.81,0.19,1,5
1771525239.672461,116758,0.24,0.04,-0.02,-120.31,-81.62,62.75,-0.81,0.31,0.13,-0.09,-0.04,0.08,110.37,78.87,28.06,0.00,0.50,0.06,1,5
1771525239.673041,116949,0.26,0.01,-0.05,-120.75,-81.62,62.75,0.37,0.19,-0.19,-0.05,-0.04,0.09,110.31,78.87,28.06,-0.19,-0.19,0.19,1,4
1771525239.673730,117140,0.25,-0.01,-0.02,-120.87,-81.62,62.81,-0.75,-0.44,0.31,-0.09,-0.04,0.06,110.31,78.87,28.06,0.13,0.06,-0.19,1,5
1771525239.698928,117331,0.28,0.04,-0.04,-120.81,-81.62,62.75,0.25,0.19,-0.06,-0.09,-0.01,0.10,110.31,78.87,28.06,-0.19,0.00,-0.13,1,4
1771525239.889938,117522,0.26,0.04,-0.06,-120.75,-81.62,62.75,0.31,-0.56,-0.13,-0.09,-0.01,0.09,110.75,78.87,28.00,-0.19,0.31,-0.19,1,4
1771525240.078939,117711,0.25,0.08,-0.01,-120.56,-81.62,62.69,0.25,0.00,0.31,-0.05,-0.03,0.08,110.69,78.87,28.06,-0.31,0.37,-0.25,1,3
1771525240.270702,117903,0.26,0.04,-0.06,-120.69,-81.69,62.75,0.00,0.31,-0.50,-0.08,-0.01,0.07,110.75,78.87,28.00,0.19,0.19,-0.19,0,3
1771525240.461782,118094,0.24,0.08,-0.05,-120.62,-81.69,62.75,-0.69,-0.25,0.50,-0.07,-0.03,0.08,110.75,78.87,28.00,0.13,-0.13,-0.06,0,3
1771525240.652385,118284,0.26,0.03,-0.06,-120.62,-81.69,62.75,-0.13,0.25,0.44,-0.12,-0.05,0.00,111.00,78.87,28.00,0.13,-2.62,0.56,0,3
1771525240.843434,118475,0.21,0.06,-0.05,-120.00,-81.75,62.75,-0.13,-0.19,0.13,-0.07,-0.02,0.11,111.06,78.87,28.00,-0.06,0.75,-0.19,0,3
1771525241.032874,118665,0.26,0.07,-0.06,-120.12,-81.75,62.75,0.37,-0.69,-0.31,-0.06,-0.03,0.14,111.00,78.87,28.00,-0.13,0.37,-0.13,1,3
1771525241.224362,118856,0.24,0.01,-0.01,-120.19,-81.75,62.81,-0.62,0.25,0.06,-0.05,-0.04,0.11,111.00,78.87,28.00,0.19,-0.13,-0.13,2,3
1771525241.415477,119047,0.25,0.05,-0.06,-120.25,-81.75,62.75,0.13,0.37,-0.37,-0.07,-0.02,0.11,111.06,78.87,28.00,-0.44,-0.19,0.13,2,3
1771525241.606265,119238,0.25,0.07,-0.01,-119.81,-81.75,62.69,-0.44,-0.37,0.44,-0.07,-0.03,0.06,111.62,78.81,28.00,-0.06,-0.19,-0.13,2,3
1771525241.796816,119429,0.29,0.05,-0.06,-119.94,-81.81,62.75,0.50,0.44,-0.56,-0.05,-0.02,0.10,111.56,78.81,28.00,-0.31,0.44,0.31,2,3
1771525241.986213,119618,0.26,0.01,-0.07,-119.87,-81.81,62.75,0.50,-0.62,0.25,-0.06,-0.02,0.10,111.56,78.81,28.00,-0.06,-0.13,-0.13,2,3
1771525242.177882,119810,0.29,0.07,-0.08,-119.87,-81.81,62.75,-0.06,0.13,0.00,-0.06,-0.03,0.09,111.56,78.81,28.00,-0.06,-0.06,-0.25,2,3
1771525242.368835,120001,0.29,0.09,-0.09,-119.75,-81.81,62.69,-0.13,0.06,-0.44,-0.11,0.00,0.06,111.87,78.81,28.00,0.13,-0.50,-0.13,3,4
1771525242.559648,120192,0.28,0.10,-0.09,-119.62,-81.81,62.63,-0.50,-0.25,0.31,-0.07,-0.04,0.12,111.81,78.81,28.00,0.31,0.00,0.13,2,4
1771525242.750455,120382,0.28,0.08,-0.09,-119.75,-81.81,62.69,-0.06,0.25,-0.69,-0.06,-0.03,0.11,111.87,78.81,28.00,0.00,0.19,-0.19,2,4
1771525242.939834,120572,0.26,0.12,-0.07,-119.69,-81.87,62.69,-0.69,0.25,0.44,-0.05,-0.03,0.12,111.87,78.81,28.00,-0.19,-0.19,-0.06,2,4
1771525243.131496,120763,0.24,0.06,-0.06,-119.81,-81.81,62.69,0.44,0.00,-0.19,-0.07,-0.04,0.11,112.06,78.75,28.00,-0.37,0.56,-0.31,1,4
1771525243.322535,120954,0.23,0.05,-0.02,-119.37,-81.81,62.63,0.50,-1.19,0.19,-0.06,-0.02,0.11,112.37,78.75,28.00,-0.06,-0.13,0.00,1,4
1771525243.513216,121145,0.26,0.03,-0.08,-119.50,-81.75,62.56,0.62,0.19,-0.81,-0.09,-0.05,0.11,112.25,78.75,28.00,-0.13,-0.19,0.62,2,4
1771525243.703832,121336,0.27,0.00,-0.05,-119.81,-81.75,62.63,0.50,-0.44,0.06,-0.04,-0.04,0.14,112.31,78.75,28.00,0.19,0.25,-0.13,2,5
1771525243.893400,121525,0.26,0.07,-0.07,-119.75,-81.69,62.50,-0.25,0.25,0.19,-0.06,-0.07,0.11,112.37,78.75,27.94,0.31,-0.06,-0.31,2,6
1771525244.084823,121717,0.23,0.08,-0.08,-119.87,-81.62,62.44,-0.44,0.50,0.37,-0.03,-0.01,0.12,112.56,78.75,27.94,0.13,1.56,-0.75,2,6
1771525244.276029,121908,0.25,0.13,-0.01,-119.81,-81.56,62.38,-0.31,-0.37,0.19,-0.04,-0.02,0.19,112.31,78.75,28.00,-0.25,1.12,-0.19,2,5
1771525244.466625,122099,0.28,0.03,-0.05,-120.44,-81.62,62.56,0.62,0.00,-0.75,-0.09,-0.04,0.13,112.31,78.75,28.00,-0.44,-0.44,0.37,1,6
1771525244.657336,122289,0.25,0.00,-0.04,-120.81,-81.69,62.69,-0.50,-0.06,0.19,-0.05,-0.03,0.15,112.31,78.75,28.00,0.00,-0.13,-0.13,3,6
1771525244.846680,122479,0.30,0.04,-0.07,-120.75,-81.69,62.63,-0.13,-0.13,0.13,-0.06,-0.05,0.15,112.31,78.75,28.00,-0.25,0.62,-0.25,3,6
1771525245.038405,122670,0.23,0.06,0.01,-120.56,-81.69,62.63,-0.13,-0.06,0.19,-0.04,-0.01,0.13,112.62,78.75,27.94,0.19,-0.44,0.19,3,7
1771525245.229277,122861,0.26,0.06,-0.07,-120.94,-81.69,62.56,0.37,0.81,-0.94,-0.07,-0.05,0.11,112.69,78.75,27.94,-0.31,0.00,0.31,2,6
1771525245.420284,123052,0.26,0.02,-0.06,-121.25,-81.81,62.69,0.00,-0.56,-0.06,-0.07,-0.03,0.15,112.69,78.75,27.94,0.00,0.13,-0.31,2,7
1771525245.610757,123243,0.29,0.09,-0.05,-120.87,-81.69,62.50,0.13,0.06,0.50,-0.09,-0.02,0.13,112.69,78.75,27.94,0.19,0.31,-0.19,2,6
1771525245.800378,123432,0.27,0.13,-0.11,-121.12,-81.69,62.50,-0.94,0.62,0.50,-0.08,-0.02,0.16,112.94,78.69,27.94,0.00,0.50,-0.62,1,6
1771525245.991831,123624,0.20,0.15,-0.09,-121.06,-81.69,62.44,-0.37,-0.13,0.37,-0.04,-0.02,0.18,113.06,78.69,27.94,0.25,0.44,0.06,2,6
1771525246.183048,123815,0.32,0.08,-0.05,-121.19,-81.69,62.50,0.31,0.00,-0.25,-0.07,-0.03,0.12,113.12,78.69,27.94,-0.37,-0.62,0.31,2,6
1771525246.373909,124006,0.28,0.06,-0.05,-121.25,-81.75,62.56,-0.37,0.00,0.19,-0.07,-0.02,0.16,113.19,78.69,27.94,-0.13,-0.25,-0.13,2,6
1771525246.564525,124197,0.26,0.12,-0.05,-121.25,-81.75,62.56,0.13,-0.56,-0.13,-0.07,-0.01,0.13,113.19,78.69,27.94,-0.06,0.19,0.00,1,5
1771525246.754032,124386,0.27,0.07,-0.05,-121.00,-81.75,62.56,0.13,-0.75,-0.25,-0.08,-0.03,0.15,113.50,78.69,27.94,-0.06,0.25,-0.13,1,5
1771525246.945339,124578,0.28,0.12,-0.06,-120.69,-81.75,62.56,0.25,0.00,0.31,-0.06,-0.04,0.15,113.37,78.69,27.94,0.00,0.00,-0.06,1,5
1771525247.136652,124769,0.28,0.09,-0.09,-120.81,-81.81,62.63,0.19,-0.13,-0.44,-0.07,-0.05,0.12,113.44,78.69,27.94,-0.06,0.31,-0.37,1,5
1771525247.327460,124959,0.25,0.12,-0.05,-120.62,-81.81,62.56,-1.19,0.25,0.50,-0.04,-0.04,0.19,113.44,78.69,27.94,-0.06,-0.13,-0.31,1,5
1771525247.517979,125150,0.29,0.04,-0.10,-120.75,-81.81,62.56,-0.13,0.06,-0.19,0.02,-0.04,0.18,113.37,78.69,27.94,-0.37,-0.37,0.13,1,5
1771525247.707281,125339,0.28,0.07,-0.06,-120.50,-81.81,62.56,0.00,0.25,-0.25,-0.02,-0.02,0.14,113.69,78.69,27.94,-0.19,0.37,0.00,1,5
1771525247.898782,125531,0.28,0.11,-0.11,-120.75,-81.87,62.63,0.75,0.31,-0.44,-0.05,-0.03,0.19,113.12,78.69,27.94,-0.13,0.62,0.25,1,5
1771525248.089844,125722,0.28,0.03,-0.08,-120.94,-81.87,62.69,0.19,-0.56,0.25,-0.05,-0.02,0.14,112.75,78.69,27.87,0.00,-0.19,-0.06,1,5
1771525248.280865,125913,0.32,0.12,-0.11,-120.69,-81.87,62.63,-0.06,0.00,0.19,-0.07,-0.03,0.14,112.31,78.69,27.87,0.00,-0.13,-0.31,1,5
1771525248.471737,126104,0.28,0.11,-0.08,-120.44,-81.87,62.56,0.06,-0.69,-0.19,-0.09,0.00,0.11,112.44,78.69,27.81,-0.19,0.25,-0.13,1,5
1771525248.660356,126293,0.28,0.14,-0.08,-120.19,-81.87,62.56,0.13,0.62,0.06,-0.05,-0.01,0.12,112.19,78.69,27.81,0.13,0.19,-0.06,1,6
1771525248.851709,126484,0.26,0.10,-0.11,-120.94,-81.94,62.75,-0.06,0.06,-0.94,-0.08,-0.03,0.09,112.00,78.69,27.81,0.00,0.13,-0.06,1,6
1771525249.042427,126675,0.28,0.14,-0.10,-120.87,-82.00,62.75,-0.62,-0.13,0.50,-0.06,-0.04,0.12,112.00,78.69,27.81,0.06,0.00,-0.19,1,6
1771525249.234179,126866,0.27,0.07,-0.07,-120.81,-82.00,62.75,0.25,-0.19,0.50,-0.07,-0.02,0.11,112.06,78.69,27.81,-0.31,0.44,-0.13,1,6
1771525249.425234,127057,0.26,0.09,-0.05,-120.37,-82.00,62.75,0.69,-0.81,0.31,-0.03,-0.01,0.09,112.37,78.62,27.81,-0.06,0.31,-0.13,1,7
1771525249.613847,127246,0.26,0.11,-0.09,-120.31,-82.00,62.69,0.31,0.19,-0.88,-0.04,-0.03,0.14,112.37,78.62,27.81,-0.25,0.13,0.06,2,7
1771525249.805121,127437,0.30,0.08,-0.11,-120.50,-82.06,62.81,0.75,-0.56,0.00,-0.06,-0.03,0.10,112.37,78.62,27.81,0.00,0.06,-0.19,3,8
1771525249.996757,127629,0.26,0.16,-0.09,-120.25,-82.06,62.75,-0.31,-0.13,0.31,-0.07,-0.02,0.08,112.37,78.62,27.81,0.06,-0.50,-0.25,3,9
1771525250.187934,127820,0.30,0.12,-0.12,-120.25,-82.06,62.75,-0.50,0.06,0.69,-0.11,-0.03,0.04,112.62,78.62,27.81,0.00,-1.75,0.44,4,9
1771525250.379010,128011,0.25,0.13,-0.08,-120.06,-81.94,62.63,-0.44,0.25,0.00,-0.06,-0.01,0.16,112.62,78.62,27.75,-0.06,0.56,-0.06,4,10
1771525250.568064,128200,0.32,0.08,-0.06,-120.75,-81.75,62.50,0.37,0.00,-0.13,-0.06,-0.03,0.15,112.75,78.62,27.75,-0.31,0.37,-0.06,4,9
1771525250.758993,128391,0.26,0.01,-0.03,-121.00,-81.75,62.56,-0.13,-0.06,0.00,-0.05,-0.04,0.15,112.75,78.62,27.75,-0.06,-0.37,0.00,4,10
1771525250.949638,128582,0.27,0.06,-0.02,-120.94,-81.62,62.38,0.44,-0.06,0.13,-0.04,-0.01,0.16,112.75,78.62,27.75,-0.06,0.62,-0.06,4,10
1771525251.140625,128773,0.30,0.07,-0.04,-120.87,-81.56,62.31,-0.31,0.06,0.00,-0.11,0.00,0.15,113.12,78.62,27.75,-0.06,-0.56,-0.13,4,9
1771525251.330288,128962,0.28,0.11,-0.06,-120.81,-81.56,62.25,-0.31,-0.19,0.37,-0.03,-0.02,0.16,113.12,78.56,27.75,-0.25,0.19,-0.31,4,9
1771525251.519017,129151,0.30,0.06,-0.07,-121.00,-81.56,62.38,0.19,0.00,-0.62,-0.07,-0.03,0.15,113.19,78.56,27.75,0.00,0.00,-0.19,4,8
1771525251.709481,129342,0.27,0.08,-0.01,-120.56,-81.62,62.31,-0.62,0.00,0.44,-0.05,-0.02,0.14,113.19,78.56,27.75,0.00,0.06,-0.06,3,7
1771525251.899823,129532,0.23,0.06,-0.04,-120.56,-81.62,62.31,0.00,0.06,0.31,-0.04,-0.02,0.15,113.19,78.56,27.75,-0.44,0.50,-0.25,3,6
1771525252.090935,129723,0.26,0.04,-0.04,-120.31,-81.62,62.31,-0.13,-0.75,-0.06,-0.04,-0.01,0.15,113.56,78.56,27.75,0.00,-0.50,0.06,3,7
1771525252.281745,129914,0.26,0.08,-0.06,-120.31,-81.69,62.31,0.44,0.31,-0.94,-0.07,-0.02,0.15,113.69,78.56,27.75,-0.19,-0.19,0.06,4,8
1771525252.471738,130104,0.28,0.07,-0.05,-120.37,-81.69,62.38,1.19,-0.62,0.06,-0.07,-0.02,0.18,113.62,78.56,27.75,-0.13,0.06,-0.06,4,9
1771525252.662051,130294,0.27,0.12,-0.03,-120.12,-81.69,62.31,0.06,0.00,0.00,-0.07,-0.01,0.12,113.62,78.56,27.75,-0.06,-0.19,0.00,6,10
1771525252.852185,130484,0.28,0.10,-0.01,-120.12,-81.69,62.31,-0.31,-0.37,0.13,-0.01,-0.03,0.14,113.69,78.56,27.75,-0.31,-1.00,0.37,6,12
1771525253.043068,130675,0.25,0.07,-0.01,-119.69,-81.75,62.31,-0.44,0.13,0.00,-0.06,-0.03,0.12,114.00,78.50,27.69,-0.06,-0.13,-0.06,6,12
1771525253.233515,130866,0.26,0.08,-0.09,-119.87,-81.75,62.31,0.00,0.56,-0.25,-0.07,-0.04,0.17,113.94,78.50,27.69,-0.13,0.50,0.31,6,13
1771525253.424270,131057,0.26,0.02,-0.06,-119.94,-81.75,62.38,0.69,-0.62,0.19,-0.03,-0.02,0.18,113.94,78.50,27.69,0.00,-0.13,-0.06,6,13
1771525253.615051,131247,0.29,0.11,-0.08,-119.75,-81.75,62.31,0.19,-0.56,0.06,-0.05,-0.02,0.15,114.00,78.50,27.69,-0.13,0.44,-0.37,6,12
1771525253.804869,131437,0.31,0.15,-0.11,-119.44,-81.81,62.31,-0.44,0.06,0.31,-0.06,-0.01,0.14,114.25,78.50,27.69,0.37,-0.06,-0.13,6,12
1771525253.996107,131628,0.25,0.12,-0.08,-119.00,-81.81,62.31,-0.37,-0.06,0.13,-0.05,-0.04,0.27,114.31,78.50,27.69,-0.25,0.19,0.31,5,11
1771525254.187123,131819,0.30,0.08,-0.10,-119.19,-81.87,62.38,0.06,0.06,-0.37,-0.07,-0.04,0.15,113.94,78.50,27.62,-0.06,-0.37,0.06,5,10
1771525254.377864,132010,0.26,0.07,-0.03,-119.12,-81.87,62.38,-1.00,-0.25,0.25,-0.07,-0.05,0.13,113.56,78.50,27.62,0.13,0.06,-0.19,5,10
1771525254.568496,132201,0.28,0.08,-0.06,-119.06,-81.87,62.31,0.44,-0.19,0.00,-0.01,0.00,0.17,113.19,78.50,27.62,-0.13,0.31,-0.19,4,9
1771525254.758284,132391,0.28,0.10,-0.09,-119.06,-81.87,62.31,0.19,-0.62,-0.31,-0.07,0.00,0.09,113.19,78.50,27.56,-0.06,-0.37,0.00,4,9
1771525254.949735,132582,0.24,0.11,-0.06,-118.87,-81.87,62.31,0.19,0.06,0.19,-0.05,-0.01,0.16,112.94,78.50,27.56,-0.19,0.19,-0.06,3,9
1771525255.140440,132773,0.29,0.09,-0.11,-119.00,-81.94,62.38,-0.13,0.13,-0.56,-0.07,-0.01,0.10,112.87,78.50,27.56,0.19,0.25,-0.13,3,8
1771525255.331329,132964,0.32,0.13,-0.11,-119.06,-81.94,62.31,-0.62,0.69,0.44,-0.07,-0.02,0.15,112.87,78.50,27.56,0.13,-0.13,-0.25,3,8
1771525255.522011,133154,0.29,0.13,-0.08,-119.12,-81.94,62.31,0.00,-0.37,0.00,-0.06,-0.01,0.14,112.94,78.50,27.56,-0.13,0.00,-0.19,3,8
1771525255.711873,133344,0.29,0.11,-0.11,-119.12,-81.87,62.31,0.00,-0.50,-0.50,-0.10,0.00,0.10,113.31,78.50,27.56,0.25,-0.44,-0.13,3,8
1771525255.902787,133535,0.30,0.12,-0.06,-118.69,-81.81,62.13,0.19,0.06,0.25,-0.09,-0.02,0.15,113.31,78.50,27.56,0.00,-0.25,0.37,3,8
1771525256.094071,133726,0.29,0.09,-0.11,-119.19,-81.69,62.06,0.06,-0.25,-0.37,-0.07,0.00,0.12,113.37,78.44,27.56,0.06,-0.13,-0.06,2,7
1771525256.284799,133917,0.28,0.09,-0.05,-119.31,-81.62,62.00,-1.06,0.69,0.56,-0.06,-0.01,0.11,113.37,78.44,27.56,0.19,0.06,-0.25,2,7
1771525256.475371,134108,0.28,0.05,-0.05,-119.50,-81.50,61.88,0.37,-0.44,0.25,-0.08,0.00,0.14,113.37,78.44,27.56,0.31,-0.62,-0.25,2,6
1771525256.665154,134298,0.33,0.09,-0.01,-119.31,-81.44,61.81,0.06,-1.06,0.31,-0.06,0.00,0.10,113.62,78.44,27.56,-0.37,0.31,-0.25,1,6
1771525256.856782,134489,0.30,0.11,-0.05,-119.06,-81.44,61.81,0.31,0.88,-0.88,-0.07,-0.01,0.10,113.44,78.50,27.56,-0.31,-0.13,0.13,1,5
1771525257.047574,134680,0.29,0.02,-0.04,-119.75,-81.56,62.00,0.50,-0.31,-0.62,-0.07,0.00,0.16,113.44,78.50,27.56,-0.06,-0.06,-0.25,1,5
1771525257.238343,134871,0.28,0.05,-0.06,-119.56,-81.56,61.94,-0.37,0.00,0.50,-0.06,-0.02,0.16,113.50,78.50,27.56,-0.06,0.13,-0.62,1,6
1771525257.428942,135061,0.30,0.05,-0.05,-119.56,-81.56,61.94,-0.37,0.50,0.44,-0.08,0.00,0.07,113.81,78.44,27.56,0.25,-1.37,0.25,1,6
1771525257.618878,135251,0.26,0.09,-0.05,-119.50,-81.56,61.88,-0.94,0.06,0.06,-0.05,0.01,0.13,113.94,78.44,27.56,0.00,0.06,0.13,1,5
1771525257.810410,135443,0.31,0.06,-0.07,-119.87,-81.62,61.94,0.88,0.37,-0.31,-0.06,-0.02,0.19,113.87,78.44,27.56,-0.31,-0.25,0.13,1,5
1771525258.001101,135634,0.26,-0.01,-0.05,-119.87,-81.69,62.06,0.25,-0.50,0.13,-0.07,0.00,0.14,113.87,78.44,27.56,0.13,-0.37,0.00,1,6
1771525258.191767,135824,0.29,0.09,-0.03,-119.81,-81.69,62.00,0.19,0.44,0.00,-0.06,0.02,0.16,113.87,78.44,27.56,0.06,0.19,-0.31,1,6
1771525258.382499,136015,0.31,0.20,-0.10,-119.81,-81.69,62.00,-0.25,0.06,-0.44,-0.06,0.00,0.14,114.12,78.44,27.56,0.44,-0.75,-0.13,1,6
1771525258.572552,136205,0.24,0.11,-0.03,-119.81,-81.56,61.88,0.00,-0.25,0.25,-0.06,-0.02,0.22,114.25,78.44,27.56,-0.06,0.37,-0.25,2,7
1771525258.764050,136396,0.29,0.03,-0.09,-120.00,-81.50,61.88,0.06,-0.06,-0.31,-0.07,-0.01,0.14,114.31,78.37,27.56,-0.44,-0.50,0.00,2,7
1771525258.954758,136587,0.28,0.04,-0.05,-119.81,-81.56,61.94,-0.75,-0.56,0.44,-0.06,-0.01,0.16,114.37,78.37,27.56,0.06,0.00,-0.06,3,8
1771525259.145444,136778,0.32,0.05,-0.06,-119.87,-81.44,61.81,0.06,0.31,0.00,-0.07,0.02,0.19,114.37,78.37,27.56,0.00,0.19,-0.19,3,8
1771525259.336113,136969,0.30,0.08,-0.06,-120.19,-81.37,61.75,0.13,-0.37,-0.25,-0.09,0.00,0.15,114.62,78.37,27.50,0.69,-0.56,0.06,3,8
1771525259.526237,137159,0.28,0.09,-0.01,-119.87,-81.37,61.69,0.00,-0.56,0.50,-0.10,0.00,0.18,114.62,78.37,27.50,0.00,-0.75,0.31,3,9
1771525259.717510,137350,0.30,0.04,-0.07,-120.06,-81.37,61.69,0.25,0.00,-0.44,-0.06,-0.01,0.12,114.50,78.37,27.50,0.13,0.13,-0.13,3,9
1771525259.908552,137541,0.20,0.10,-0.06,-120.00,-81.37,61.75,-0.88,0.75,0.25,-0.07,-0.03,0.16,113.87,78.44,27.50,-0.19,-0.13,-0.37,4,10
1771525260.099170,137732,0.24,0.08,-0.02,-119.87,-81.44,61.75,0.69,0.13,-0.50,-0.02,0.01,0.14,113.50,78.50,27.50,-0.62,-0.13,0.00,4,10
1771525260.289828,137922,0.27,0.04,0.00,-119.62,-81.44,61.75,0.13,-0.25,-0.19,-0.05,0.00,0.11,113.50,78.44,27.50,-0.25,-0.06,0.13,5,10
1771525260.479826,138113,0.28,0.03,-0.05,-119.81,-81.50,61.81,0.37,0.81,-0.62,-0.05,0.00,0.11,113.12,78.50,27.50,-0.37,0.13,0.13,5,10
1771525260.671129,138304,0.26,0.00,-0.03,-119.87,-81.50,61.81,0.19,-0.62,0.19,-0.06,0.00,0.11,112.81,78.50,27.50,0.06,-0.31,-0.06,5,10
1771525260.861930,138494,0.27,0.11,-0.06,-119.69,-81.50,61.81,-0.13,-0.06,0.00,-0.05,0.00,0.12,112.81,78.50,27.50,0.13,0.00,-0.25,4,10
1771525261.052976,138685,0.26,0.07,-0.07,-119.69,-81.50,61.75,-0.13,-0.56,-0.31,-0.07,0.03,0.14,113.12,78.44,27.44,-0.06,0.31,-0.19,4,10
1771525261.243393,138876,0.24,0.07,-0.05,-119.62,-81.50,61.75,0.13,0.00,0.25,-0.07,-0.01,0.10,113.12,78.44,27.44,0.31,-0.75,0.31,4,10
1771525261.433235,139066,0.26,0.08,-0.05,-119.75,-81.56,61.81,0.00,0.19,-0.81,-0.05,0.00,0.09,113.06,78.44,27.44,0.06,0.19,0.00,5,10
1771525261.624531,139257,-0.36,0.30,0.04,-119.00,-81.62,61.88,1.75,1.69,1.12,-0.11,0.10,0.33,114.37,78.56,27.31,3.62,-10.81,-0.31,4,10
1771525261.815593,139448,0.50,-0.02,-0.28,-122.75,-80.75,61.50,-8.38,1.00,-0.13,-0.35,-0.17,-0.39,118.31,77.94,26.37,7.25,-11.75,3.25,4,10
1771525262.006147,139639,0.14,0.07,0.00,-111.56,-81.44,59.25,-11.75,-10.38,-0.13,0.02,0.20,0.25,113.12,78.56,25.62,7.69,4.31,-3.87,4,12
1771525262.195901,139828,0.50,0.12,-0.17,-109.87,-81.69,58.00,-6.19,7.50,0.19,-0.19,-0.16,-0.02,112.62,79.00,24.19,16.62,-14.19,-0.94,7,15
1771525262.386202,140019,-0.17,0.30,-0.32,-110.25,-81.44,57.00,-5.94,-1.87,2.31,-0.12,0.23,-0.06,117.00,79.00,24.25,7.87,-20.44,4.31,8,15
1771525262.577322,140210,0.22,0.24,0.36,-105.75,-81.87,56.63,0.69,-8.38,-3.69,0.11,0.04,0.11,126.50,77.37,23.69,-6.25,-5.31,2.25,11,15
1771525262.768714,140401,0.40,0.34,-0.01,-101.12,-81.81,56.25,-4.69,0.88,-1.87,-0.01,-0.15,-0.14,125.06,76.25,22.06,5.94,0.88,3.50,11,14
1771525262.959812,140592,0.30,-0.28,0.02,-99.06,-81.94,57.75,14.75,1.25,1.44,-0.01,-0.11,0.16,121.12,76.87,22.50,-2.62,14.19,-4.81,13,14
1771525263.149503,140782,0.79,-0.23,-0.31,-104.75,-81.62,59.25,10.63,6.69,-1.69,-0.11,0.02,-0.40,122.12,77.31,24.81,-5.56,-6.81,-0.88,19,14
1771525263.339572,140972,0.06,-0.21,-0.41,-98.19,-81.25,59.31,-0.37,-1.31,0.00,-0.28,-0.05,0.31,127.00,76.81,25.19,-3.69,-20.81,4.25,23,16
1771525263.531266,141164,-0.12,0.28,0.91,-100.31,-81.50,59.25,2.12,-3.75,-5.75,0.36,0.52,0.24,126.12,77.00,25.94,-3.94,12.13,-9.88,23,18
1771525263.722151,141355,0.62,0.10,-0.48,-106.12,-81.12,57.94,-16.06,-1.19,4.44,0.32,0.00,1.14,114.06,78.81,27.00,2.06,33.38,-5.19,27,16
1771525263.913610,141546,0.03,-0.04,-0.62,-111.31,-80.87,55.94,-3.94,-0.13,-6.19,-0.25,-0.04,-0.12,118.31,78.06,25.44,6.19,-17.62,2.50,28,14
1771525264.102619,141735,0.18,0.38,1.34,-108.69,-81.62,56.81,4.19,-0.88,0.69,-0.04,0.12,-0.22,117.94,77.62,26.37,-11.50,9.88,1.75,26,10
1771525264.292506,141925,0.25,-0.07,-0.10,-113.06,-81.19,57.69,8.94,13.50,-0.19,0.11,0.09,0.52,111.81,77.94,27.12,1.44,0.13,4.25,25,9
1771525264.482851,142116,0.45,-0.19,-0.33,-129.06,-80.31,59.25,5.25,5.44,-7.75,-0.11,-0.06,0.24,106.12,77.81,25.94,6.75,0.69,1.44,23,11
1771525264.672245,142305,0.18,-0.29,0.21,-136.37,-81.25,61.63,4.19,-2.25,-1.12,0.10,-0.04,0.44,98.37,78.44,24.00,13.25,5.50,-4.37,24,10
1771525264.862907,142495,0.80,-0.33,-0.22,-139.56,-80.44,62.44,-0.37,-3.56,6.12,-0.18,0.00,-0.45,99.44,78.87,22.87,9.06,0.44,-0.50,23,11
1771525265.054173,142687,0.16,0.70,0.25,-111.87,-81.44,57.00,-26.00,-13.06,1.87,0.06,0.17,0.15,94.06,79.37,24.81,-6.75,-4.56,-0.44,18,11
1771525265.245303,142878,0.49,-0.13,0.00,-104.25,-82.19,56.50,4.06,7.06,-6.06,-0.02,-0.06,0.04,100.31,79.19,24.50,-2.25,-3.81,-2.25,16,11
1771525265.434477,143067,0.12,0.17,0.30,-102.62,-82.12,57.00,3.12,-1.12,-0.75,-0.04,0.03,0.08,101.00,79.12,25.00,-1.50,0.94,0.44,17,10
1771525265.623071,143256,0.15,0.06,0.14,-109.69,-81.75,58.25,19.94,14.19,3.44,-0.12,0.18,-0.01,99.37,79.19,25.62,-4.12,4.50,0.56,14,11
1771525265.812981,143445,0.34,-0.10,-0.28,-122.12,-80.75,59.13,-7.06,5.12,-1.50,-0.03,-0.13,-0.12,99.00,78.94,25.44,3.31,2.94,-0.75,15,13
1771525266.001021,143634,0.30,0.11,0.03,-120.37,-81.00,58.56,3.25,-0.44,0.13,0.00,-0.13,0.23,94.62,79.00,25.69,-2.94,-3.19,0.88,15,13
1771525266.191681,143824,0.20,-0.16,0.03,-122.75,-81.31,60.50,8.44,5.19,-2.62,-0.11,0.13,-0.05,96.87,79.12,26.06,-1.44,1.94,0.13,17,13
1771525266.382108,144015,0.52,0.06,-0.03,-126.50,-80.81,60.81,-0.50,-2.31,0.50,-0.14,0.02,0.06,97.75,78.87,26.06,0.19,1.75,0.88,17,12
1771525266.573114,144206,0.06,-0.11,0.19,-114.19,-82.19,60.69,-11.19,-15.13,-4.75,-0.05,0.05,0.05,97.37,78.81,25.87,-2.37,1.75,-0.31,17,13
1771525266.762404,144395,0.28,-0.11,0.03,-109.56,-83.00,60.13,2.62,1.00,-0.25,-0.10,0.04,0.10,96.37,78.81,25.81,-0.19,-0.62,-1.06,18,13
1771525266.952474,144585,-0.05,0.29,0.21,-109.25,-82.56,59.38,0.44,1.37,1.44,-0.05,0.01,0.16,96.31,79.06,26.00,0.94,-3.12,-0.44,18,13
1771525267.142528,144775,0.59,-0.17,-0.24,-122.25,-81.12,60.88,8.94,4.00,0.00,-0.11,0.03,0.03,99.31,78.81,25.62,1.50,-2.12,0.62,18,12
1771525267.331981,144965,0.24,0.03,0.08,-121.62,-81.56,61.19,0.50,-5.12,-1.00,-0.12,-0.08,0.09,99.06,79.00,25.56,0.50,1.44,-2.75,19,13
1771525267.523447,145156,0.15,0.11,0.06,-117.25,-81.69,61.19,-2.06,-0.31,0.06,-0.13,0.08,0.06,99.94,79.06,25.94,0.19,-2.62,0.69,19,12
1771525267.715055,145348,0.25,0.05,0.02,-118.06,-81.69,61.19,0.37,0.31,-1.12,-0.10,-0.03,0.00,99.69,79.00,26.06,-2.31,1.94,0.06,17,11
1771525267.905736,145538,0.14,-0.11,0.12,-117.00,-82.00,61.81,1.75,1.12,-1.25,-0.08,0.00,0.08,99.00,79.06,26.44,-1.06,-0.56,-0.25,15,9
1771525268.095474,145728,0.52,-0.24,-0.20,-116.87,-82.00,61.56,-5.44,-7.37,2.19,-0.04,0.04,0.10,98.75,79.06,26.50,-0.25,2.19,-0.75,13,9
1771525268.283871,145916,0.00,0.25,0.27,-97.12,-83.00,59.06,-17.94,-6.87,-5.87,-0.10,0.02,0.00,97.81,79.12,26.44,0.19,-0.13,0.13,11,9
1771525268.473126,146106,0.21,0.08,0.12,-89.56,-83.12,58.06,-0.75,-2.37,1.37,-0.04,0.00,0.16,98.56,79.12,26.50,-0.50,-1.19,-0.69,10,8
1771525268.661673,146294,0.06,0.14,0.07,-91.69,-83.06,58.13,2.12,7.87,-0.50,-0.08,-0.01,0.06,98.87,79.12,27.12,-3.50,-0.81,-0.31,9,8
1771525268.852130,146485,0.65,-0.32,-0.07,-110.50,-82.37,60.44,17.62,3.87,5.19,-0.07,0.11,-0.08,100.44,79.12,27.19,2.06,-1.94,0.56,9,6
1771525269.042577,146675,0.24,-0.07,0.01,-111.56,-82.12,61.25,-3.31,2.50,-2.81,-0.07,-0.04,0.18,101.75,79.00,26.25,4.06,-4.69,0.94,8,7
1771525269.232937,146866,0.32,0.06,-0.14,-115.69,-82.00,60.75,-2.19,0.62,1.69,-0.16,-0.04,-0.06,103.62,78.69,26.00,-0.37,2.50,-0.19,6,6
1771525269.422220,147055,0.13,-0.15,0.04,-112.19,-82.19,61.13,1.62,-2.31,-0.13,-0.09,0.00,0.08,102.19,78.81,26.31,-2.50,1.06,0.25,5,6
1771525269.612402,147245,0.48,-0.13,-0.18,-105.87,-82.44,60.56,-9.38,-11.69,0.94,-0.09,0.00,0.09,101.69,78.87,26.56,0.00,1.19,-0.62,5,6
1771525269.802552,147435,0.01,0.08,0.20,-87.31,-83.12,58.88,-10.19,-4.69,-2.75,-0.16,0.00,0.13,100.69,78.94,26.69,-0.50,1.31,0.69,6,6
1771525269.991575,147624,0.07,0.02,0.12,-91.25,-83.12,58.69,4.19,8.13,-0.25,-0.11,-0.01,0.02,101.44,78.94,26.37,2.94,-6.44,1.25,6,6
1771525270.182542,147815,0.49,-0.10,-0.21,-107.81,-81.81,59.81,14.25,8.31,3.12,-0.09,0.00,0.12,103.75,78.81,26.00,0.75,-1.56,-0.50,6,6
1771525270.374321,148007,0.45,-0.06,0.04,-112.44,-81.75,60.69,-1.44,-6.56,-0.44,-0.06,-0.02,0.13,103.81,78.81,26.06,-0.62,2.31,-0.31,6,7
1771525270.564816,148197,0.30,-0.03,-0.06,-106.75,-82.00,60.56,-2.75,0.50,-1.75,-0.10,-0.08,0.01,103.94,78.69,26.00,0.56,-3.37,1.69,6,7
1771525270.755763,148389,0.07,0.02,0.13,-104.81,-82.12,60.50,3.31,-5.12,-0.81,-0.19,0.12,0.14,102.19,78.75,26.31,0.19,0.19,-0.69,5,7
1771525270.945490,148578,0.29,0.05,-0.06,-105.75,-82.19,60.69,-1.56,2.19,-0.25,-0.11,-0.02,-0.02,102.25,78.81,26.44,0.06,-2.19,0.56,6,8
1771525271.135976,148769,0.09,-0.11,0.02,-98.37,-82.31,60.06,-7.81,-9.44,-2.75,-0.05,0.07,0.21,101.25,78.87,26.69,0.81,1.50,-0.69,7,8
1771525271.326947,148959,0.43,0.06,-0.06,-173.25,-83.25,58.94,-6.87,0.75,-4.37,-0.05,-0.08,0.01,101.69,78.81,26.62,1.75,-0.06,-0.75,9,9
1771525271.516438,149149,0.12,-0.20,0.11,-6.37,-83.56,59.31,-1.31,0.31,4.44,-0.06,0.05,0.10,103.25,78.87,26.37,1.94,-4.31,0.19,11,9
1771525271.704883,149338,0.33,0.08,-0.07,-93.56,-82.87,57.75,-3.87,4.31,3.62,-0.07,0.00,0.02,107.44,78.62,25.19,4.25,-6.06,0.31,11,10
1771525271.893839,149527,0.29,0.13,0.01,-97.12,-82.06,56.31,-1.81,4.12,1.50,-0.08,-0.08,0.03,110.81,78.31,24.62,0.69,-3.25,0.31,12,11
1771525272.082660,149716,0.26,-0.01,0.00,-98.69,-82.06,56.06,1.31,-0.69,-1.12,-0.04,0.09,0.06,111.25,78.19,24.44,0.69,0.19,0.37,13,12
1771525272.272486,149905,0.54,-0.28,-0.06,-107.94,-81.25,58.13,26.25,15.81,2.44,-0.11,-0.01,-0.02,112.19,78.19,24.37,-1.25,0.94,-1.87,12,12
1771525272.462870,150096,0.24,0.08,-0.04,-111.37,-81.37,59.69,0.69,-7.19,3.25,0.00,0.05,0.23,109.06,78.62,25.44,-2.94,7.94,-2.62,12,12
1771525272.654218,150287,0.36,-0.17,-0.20,-109.75,-81.19,60.50,4.06,0.50,0.62,-0.08,-0.05,0.00,108.06,78.94,25.94,0.19,-2.19,0.56,12,13
1771525272.845171,150478,0.55,-0.24,0.00,-100.12,-81.37,59.88,-12.81,-19.44,1.37,0.00,0.02,0.16,106.62,79.12,26.50,-3.06,4.31,-1.06,12,12
1771525273.035106,150668,0.19,0.22,0.13,-84.12,-82.19,58.00,-5.75,9.25,-1.31,-0.07,-0.08,0.04,105.25,79.25,27.00,-2.37,1.56,1.00,11,12
1771525273.225309,150858,0.66,-0.49,-0.12,-105.50,-81.31,61.19,30.00,8.13,5.50,-0.04,-0.03,0.15,105.62,79.12,27.06,0.62,-4.44,0.25,9,11
1771525273.415537,151048,0.24,0.01,-0.13,-111.25,-81.37,62.44,-7.62,2.75,0.31,-0.13,-0.12,-0.01,107.44,78.87,26.94,-1.62,0.37,1.06,8,11
1771525273.604870,151237,0.14,-0.18,0.02,-110.50,-81.56,62.06,-0.94,-1.94,-2.94,0.01,-0.04,0.10,106.69,78.94,26.94,-0.62,0.44,-0.37,7,11
1771525273.795020,151428,0.21,0.09,-0.07,-111.62,-81.44,61.25,-2.87,1.06,1.94,-0.10,0.00,0.02,106.06,78.94,26.87,1.19,2.81,-0.06,7,11
1771525273.986072,151619,0.50,-0.03,-0.11,-115.12,-81.06,60.88,-1.81,2.12,-0.81,-0.15,-0.01,-0.02,105.75,79.00,26.94,-0.13,-1.25,0.25,7,10
1771525274.176668,151809,0.24,-0.01,0.06,-104.00,-81.94,59.63,-15.81,-7.62,-4.69,-0.14,-0.08,0.04,105.69,79.06,26.81,2.62,-3.00,-0.81,8,9
1771525274.364727,151997,0.16,-0.07,0.15,-97.50,-82.37,58.56,-1.31,-1.94,2.25,-0.02,-0.02,0.04,107.56,79.12,26.62,3.44,-4.37,-1.25,7,7
1771525274.553665,152186,0.31,0.30,0.01,-100.94,-82.06,57.63,-0.13,12.13,-0.94,-0.05,-0.01,0.01,110.25,78.94,25.62,1.00,-3.87,0.62,6,6
1771525274.742288,152375,0.70,-0.31,-0.12,-114.94,-80.94,59.06,15.56,3.50,0.75,-0.04,0.10,-0.16,107.94,79.19,26.44,-8.75,8.88,0.13,6,6
1771525274.932134,152565,-0.11,-0.17,0.02,-113.94,-81.12,60.31,5.25,5.00,-4.19,-0.06,-0.02,0.12,106.12,79.31,26.81,-1.62,-6.37,2.87,6,6
1771525275.122750,152755,0.51,-0.16,-0.10,-124.62,-81.00,61.19,1.19,-5.62,-3.81,-0.07,-0.01,0.13,106.37,79.00,26.50,-2.06,3.25,-0.56,7,6
1771525275.314406,152947,0.45,-0.05,-0.04,-122.19,-81.25,61.44,-3.19,-0.13,0.88,0.00,-0.04,0.22,104.69,79.06,26.87,-0.13,1.19,0.88,7,5
1771525275.505456,153138,0.44,-0.32,-0.02,-112.81,-81.81,60.75,-6.87,-18.25,2.75,-0.05,-0.04,0.21,103.81,79.00,26.87,1.31,2.12,-0.62,8,6
1771525275.695031,153328,0.28,-0.03,0.16,-100.81,-82.50,59.38,-3.87,-2.31,-0.13,-0.06,0.01,0.00,103.69,79.19,26.87,-0.81,1.12,-1.19,8,6
1771525275.885125,153518,0.65,-0.16,0.00,-97.56,-82.31,58.56,-7.25,-1.69,-0.50,-0.01,0.17,0.16,106.19,79.19,26.31,9.06,-10.00,1.62,9,6
1771525276.076108,153709,0.44,0.07,-0.15,-104.75,-81.87,58.44,17.81,10.81,7.62,-0.12,-0.36,-0.05,113.44,78.12,24.12,0.56,2.06,-0.50,10,7
1771525276.267568,153901,0.13,0.02,0.20,-104.50,-81.50,59.81,-2.25,-11.25,3.75,0.05,0.17,0.23,106.00,78.87,25.81,-5.25,17.37,-4.56,9,8
1771525276.458942,154092,0.28,-0.08,-0.20,-101.94,-81.37,59.50,-2.69,8.88,-0.44,-0.11,-0.10,0.07,105.50,79.06,26.25,0.37,-4.12,2.19,10,9
1771525276.648565,154281,0.21,-0.19,0.10,-106.62,-81.56,59.69,4.50,-3.06,-1.19,-0.02,0.04,0.05,106.00,78.87,26.19,-0.56,0.88,-0.06,11,9
1771525276.838819,154471,0.47,-0.11,-0.19,-106.37,-81.69,59.88,-2.75,-2.94,0.13,-0.09,-0.04,0.00,105.50,78.94,26.19,0.13,2.25,-1.37,11,10
1771525277.030186,154663,-0.15,0.21,0.28,-85.37,-82.25,58.06,-20.00,-13.06,-3.69,-0.07,0.06,0.07,103.06,79.56,26.75,-1.50,-3.94,0.00,11,10
1771525277.221427,154854,0.20,0.03,0.12,-79.44,-82.31,57.00,0.06,-1.56,0.69,-0.07,-0.01,0.03,104.69,79.50,26.69,-1.50,1.87,-0.50,10,10
1771525277.412208,155045,0.16,0.22,0.12,-83.12,-82.25,57.50,13.31,10.63,-1.12,-0.02,0.02,0.01,104.37,79.44,27.06,-1.56,1.56,0.56,10,9
1771525277.601781,155235,0.56,-0.46,-0.17,-104.75,-81.37,61.63,27.50,5.12,3.00,-0.06,0.00,0.07,106.50,79.00,26.69,0.50,-5.44,1.62,10,9
1771525277.792074,155425,0.21,0.05,-0.04,-107.19,-81.81,63.69,-3.81,-1.25,-2.62,-0.10,-0.09,0.04,107.25,78.56,26.31,-2.81,2.19,0.94,8,8
1771525277.983239,155616,0.19,-0.14,0.09,-104.87,-82.31,64.12,-1.12,-2.56,0.44,-0.09,-0.02,0.09,106.81,78.62,26.44,0.06,0.56,0.75,8,9
1771525278.174888,155808,0.31,-0.13,-0.05,-105.37,-82.50,63.38,-7.44,1.94,-2.31,-0.11,-0.02,0.02,106.25,78.62,26.50,0.88,0.44,-0.69,9,9
1771525278.365912,155999,0.34,-0.08,-0.09,-93.50,-82.75,60.88,-26.75,-19.25,-0.50,-0.08,0.00,0.17,104.69,78.94,26.81,-0.75,3.31,-0.50,9,9
1771525278.555190,156188,0.11,0.32,0.19,-77.75,-83.06,57.81,-4.00,3.06,-1.00,-0.05,-0.03,0.00,104.37,79.00,27.00,1.06,-0.81,-1.25,10,10
1771525278.745355,156378,0.13,-0.38,0.04,-6.75,-83.12,58.88,5.87,3.81,3.31,-0.02,-0.03,0.16,104.69,79.06,27.00,-2.56,0.62,-0.37,9,9
1771525278.935143,156568,-0.07,0.01,0.11,-99.19,-82.81,59.13,13.31,16.44,0.75,-0.02,0.17,0.09,105.81,79.25,27.00,0.75,-3.19,0.56,10,10
1771525279.126198,156759,0.42,-0.02,-0.22,-117.44,-81.56,59.69,-4.87,-0.69,-0.75,-0.07,0.12,0.03,107.75,78.87,26.37,-2.81,1.75,1.00,10,10
1771525279.317027,156950,0.15,0.00,0.08,-111.50,-81.75,59.19,3.25,-3.75,-0.94,-0.09,-0.11,0.06,105.81,78.94,26.69,-2.00,2.56,-0.56,10,9
1771525279.507480,157141,0.26,-0.08,0.03,-109.37,-82.00,59.88,-1.25,-4.19,0.56,-0.04,0.00,0.19,104.62,79.06,27.00,0.00,0.44,-0.69,10,9
1771525279.698469,157331,0.37,-0.10,-0.13,-101.81,-82.19,59.31,-7.87,-13.56,1.69,-0.05,0.05,0.13,104.19,79.12,27.06,-0.94,1.00,-0.06,11,9
1771525279.887861,157521,0.27,0.04,0.06,-87.56,-82.25,57.63,-8.56,-4.62,-0.56,-0.08,-0.03,0.11,104.62,79.12,27.00,-1.69,1.19,-0.31,10,8
1771525280.075958,157709,0.05,0.03,0.14,-83.50,-82.44,57.31,2.62,1.50,-2.37,-0.10,-0.03,0.05,104.75,79.12,26.94,0.13,-0.31,-0.75,9,7
1771525280.265038,157898,0.46,-0.21,-0.14,-97.69,-81.75,59.38,27.12,8.00,7.56,-0.06,0.10,0.08,105.81,79.12,27.12,1.50,-1.62,0.13,8,5
1771525280.453878,158087,0.16,0.05,-0.04,-101.06,-81.75,61.00,-6.87,-0.50,-0.25,-0.09,-0.02,0.13,106.94,78.81,26.69,-0.75,-0.62,1.25,8,5
1771525280.644604,158277,0.13,-0.15,-0.03,-99.94,-81.87,60.69,0.50,-0.62,-1.31,-0.05,-0.04,0.07,108.25,78.62,26.62,-0.37,2.56,0.44,7,4
1771525280.834957,158468,0.21,-0.03,0.04,-97.25,-82.06,60.63,-0.13,-1.44,-1.00,-0.03,0.00,0.10,107.44,78.69,26.75,-1.12,1.25,-1.62,6,4
1771525281.025984,158659,0.44,-0.27,-0.10,-90.37,-82.00,59.81,-16.25,-12.44,0.31,-0.05,0.03,0.16,107.06,79.00,27.06,0.06,1.69,-0.44,5,3
1771525281.215161,158848,0.34,0.23,0.16,-78.25,-82.56,57.50,-6.06,4.19,-3.94,-0.12,0.00,-0.04,106.37,79.00,27.12,-1.50,0.44,0.19,5,4
1771525281.405264,159038,0.15,0.06,0.00,-81.69,-82.75,57.94,2.62,5.94,-1.50,-0.11,-0.02,0.13,105.62,79.06,27.25,-1.94,0.56,0.44,5,3
1771525281.596603,159230,0.41,-0.08,-0.01,-97.62,-82.44,60.00,33.19,12.00,4.94,-0.09,-0.01,0.00,105.75,78.94,27.44,-1.19,-0.44,-0.50,5,4
1771525281.788123,159421,0.33,-0.21,-0.11,-103.87,-81.81,62.94,2.44,-0.62,0.00,-0.08,-0.05,0.10,105.37,78.94,27.56,-0.56,-0.31,0.75,6,5
1771525281.979368,159612,0.23,-0.08,-0.01,-101.87,-82.12,63.00,-0.69,-1.69,-0.37,-0.10,0.00,0.00,105.19,78.94,27.56,0.56,-0.06,0.00,6,6
1771525282.168671,159802,0.14,-0.01,0.00,-99.94,-82.19,62.56,-5.44,2.69,-1.87,-0.12,-0.03,0.00,106.94,78.81,27.19,2.75,-5.62,1.12,7,7
1771525282.358879,159992,0.30,-0.06,-0.08,-98.62,-82.12,61.13,-11.31,-7.00,1.25,-0.05,0.02,0.15,106.44,78.94,27.19,1.87,0.81,-1.56,7,7
1771525282.549075,160182,0.39,-0.06,-0.04,-88.37,-81.94,58.94,-12.31,-7.81,1.50,-0.10,-0.05,0.14,107.19,79.00,27.12,0.81,2.44,-0.88,8,8
1771525282.738604,160371,0.14,-0.10,0.09,-81.81,-81.75,57.06,-7.50,-0.81,3.75,-0.14,-0.01,0.09,107.31,79.19,27.25,0.81,-1.69,-0.94,9,9
1771525282.929868,160563,0.37,0.10,0.09,-83.69,-80.87,54.88,-5.12,4.25,4.69,-0.06,-0.06,0.10,109.37,79.25,27.25,-1.06,0.44,-1.44,10,10
1771525283.120679,160754,0.27,0.11,-0.07,-87.00,-80.25,53.81,0.13,1.06,0.88,-0.11,0.00,0.08,109.81,79.44,27.50,-0.62,0.44,0.69,10,9
1771525283.311538,160945,0.33,0.01,-0.03,-93.56,-80.12,55.38,28.19,10.81,0.00,-0.10,0.01,0.00,109.12,79.44,27.62,-0.19,-0.19,1.06,10,9
1771525283.503540,161137,0.47,-0.35,-0.20,-102.75,-80.12,59.06,3.00,-1.06,-2.81,-0.02,0.03,0.10,109.94,79.12,27.56,-1.37,1.12,0.62,10,9
1771525283.695224,161328,0.31,-0.17,-0.03,-100.31,-80.50,59.38,-1.62,-4.81,-1.06,-0.17,-0.02,0.11,108.37,79.12,27.62,-0.19,-0.13,0.94,10,9
1771525283.886121,161519,0.34,-0.33,-0.20,-93.19,-80.94,58.75,-13.25,-9.06,-1.25,-0.11,-0.06,0.08,107.25,79.19,27.62,2.69,-3.81,0.25,11,10
1771525284.075695,161709,0.12,0.14,0.08,-84.94,-81.75,56.81,-11.38,-2.00,-3.25,-0.09,0.03,0.08,107.75,79.12,27.56,-0.56,1.62,-1.50,10,9
1771525284.265777,161899,0.05,0.36,0.15,-87.06,-81.87,56.69,7.25,6.06,0.13,-0.15,-0.10,0.00,107.31,79.25,27.81,-0.31,1.81,0.13,10,10
1771525284.456326,162089,0.40,-0.36,-0.15,-100.06,-81.50,59.19,11.88,5.81,1.69,-0.10,0.05,-0.05,107.44,79.19,28.06,2.62,-3.50,1.12,10,9
1771525284.648102,162281,0.21,-0.04,-0.09,-103.06,-81.44,59.38,-1.94,3.25,-1.12,-0.07,-0.09,0.12,108.06,78.94,27.37,0.31,1.06,-0.56,10,9
1771525284.839182,162472,0.43,-0.35,-0.15,-104.00,-81.31,59.56,-3.00,-3.81,3.56,-0.06,0.06,0.06,108.19,79.12,27.44,2.06,-2.37,-0.69,9,8
1771525285.029022,162662,0.07,0.25,0.17,-86.44,-81.19,56.94,-18.19,-11.56,-2.00,-0.10,-0.06,0.05,108.19,79.12,27.25,-1.25,-0.19,0.94,8,9
1771525285.219025,162852,0.29,0.08,0.15,-78.50,-81.56,56.06,1.56,0.75,-3.56,-0.13,-0.05,0.07,107.62,79.12,27.62,-1.06,2.06,0.06,8,9
1771525285.410992,163044,0.28,-0.03,-0.09,-78.94,-82.06,57.06,2.25,0.25,-2.50,-0.11,-0.07,0.05,106.12,79.12,27.62,0.25,-0.19,-0.06,8,9
1771525285.601691,163235,0.18,-0.09,0.07,-79.75,-82.56,58.25,3.56,5.12,0.00,-0.11,-0.10,0.06,105.62,79.19,27.81,-2.06,0.62,-0.50,7,8
1771525285.793166,163426,0.30,0.05,-0.05,-88.87,-82.19,58.56,13.13,9.81,7.37,-0.11,0.00,0.00,104.94,79.31,28.19,-0.88,-2.62,0.13,7,8
1771525285.982860,163616,0.18,-0.18,0.00,-95.06,-81.81,59.75,0.00,-0.13,-1.44,-0.06,-0.02,0.17,105.37,79.25,28.00,0.69,0.19,0.88,8,9
1771525286.173322,163806,0.25,-0.20,-0.13,-97.50,-81.81,59.50,-2.31,-0.94,1.25,-0.15,-0.01,0.03,106.75,79.19,27.69,0.56,-0.06,0.56,8,9
1771525286.364874,163998,-0.02,0.17,0.21,-85.87,-81.62,57.81,-13.88,-14.13,-3.87,-0.06,0.03,0.13,104.94,79.44,27.87,0.94,-2.56,0.25,9,10
1771525286.556085,164189,0.26,0.07,-0.01,-84.25,-82.00,57.38,1.12,1.56,-1.94,-0.02,0.03,0.06,105.81,79.31,27.94,0.81,-0.44,-0.37,8,10
1771525286.746845,164380,0.30,0.03,-0.09,-86.31,-82.37,57.75,-1.31,1.87,-1.69,0.02,0.00,0.10,105.44,79.19,28.06,-0.50,0.75,0.56,8,10
1771525286.936671,164570,0.33,-0.10,-0.02,-92.62,-82.56,59.06,15.13,4.50,1.50,-0.14,0.03,-0.01,104.81,79.19,28.31,-3.37,-0.62,1.81,9,10
1771525287.126919,164760,0.19,-0.24,0.02,-94.06,-82.50,60.19,-1.56,-1.87,-2.00,-0.05,-0.03,0.18,105.81,78.87,27.75,2.81,-1.62,2.87,9,10
1771525287.318046,164951,0.21,-0.05,0.01,-94.00,-82.25,59.63,2.44,-1.12,1.62,-0.09,-0.01,0.05,105.37,78.81,27.50,4.00,-0.88,-2.44,9,10
1771525287.509407,165142,0.78,-0.29,-0.32,-89.75,-81.75,58.56,-17.12,-14.75,8.75,-0.02,0.02,0.18,105.94,78.94,27.44,0.75,-0.56,-1.44,10,11
1771525287.700759,165334,0.39,0.40,0.07,-72.06,-80.81,55.13,-2.75,-0.81,-0.19,-0.16,-0.03,-0.23,107.12,79.06,27.69,-1.25,-1.50,-0.56,10,11
1771525287.890019,165523,0.09,0.08,0.09,-67.50,-80.81,55.94,3.06,0.50,-4.12,0.00,0.06,0.22,105.31,79.19,28.00,-1.25,3.06,0.88,9,10
1771525288.080663,165714,0.42,-0.12,-0.05,-72.12,-81.94,57.06,4.75,4.06,-4.25,-0.14,-0.12,0.28,104.06,79.12,28.12,-1.62,-0.06,1.87,9,10
1771525288.272114,165905,0.16,0.07,0.06,-76.81,-82.19,57.88,9.31,4.06,-1.00,-0.11,-0.07,-0.06,104.44,79.00,28.37,0.81,-1.06,0.25,8,11
1771525288.463134,166096,0.36,-0.07,-0.04,-91.94,-81.62,60.81,16.87,7.94,1.31,-0.08,0.03,-0.13,103.56,79.06,28.56,0.44,-2.19,-0.25,9,10
1771525288.654595,166287,0.21,-0.13,-0.15,-99.00,-82.12,62.69,-3.44,3.62,-2.37,-0.10,-0.04,0.12,104.31,79.00,28.12,-2.19,6.25,-0.06,9,10
1771525288.843932,166477,0.20,-0.31,0.02,-100.94,-82.19,62.69,2.00,-0.06,-0.19,-0.06,-0.05,0.00,102.50,79.19,28.31,-0.75,-2.25,0.31,9,10
1771525289.033693,166667,0.28,0.11,0.00,-102.06,-82.06,62.06,0.81,3.06,-0.69,-0.02,0.12,0.04,101.62,79.19,28.44,1.62,-0.13,0.25,9,10
1771525289.225430,166858,0.33,-0.31,-0.06,-104.94,-82.12,62.38,0.00,-0.50,2.69,-0.21,-0.16,-0.24,103.56,79.06,27.44,6.56,-5.56,-2.00,8,10
1771525289.416227,167050,-0.17,0.12,-0.06,-81.19,-81.56,58.88,-42.75,-35.06,4.25,0.10,0.11,0.37,100.94,79.44,27.56,0.56,4.50,0.62,8,9
1771525289.608016,167241,0.30,0.07,0.03,-66.94,-81.44,56.19,8.69,5.06,-2.81,-0.08,-0.07,-0.27,102.06,79.44,27.37,-2.69,-3.19,-1.69,8,9
1771525289.797057,167431,0.10,0.23,0.22,-71.56,-81.69,57.50,7.81,8.38,3.31,-0.04,0.07,0.02,102.19,79.56,28.12,-7.06,0.50,-0.25,8,9
1771525289.987894,167621,0.63,-0.06,-0.37,-90.44,-80.37,58.81,21.44,8.06,2.25,-0.15,0.13,-0.11,104.25,79.69,29.31,-3.19,-6.56,2.87,7,8
1771525290.178949,167812,0.05,-0.26,0.06,-91.69,-81.37,60.88,-2.94,-1.62,-8.31,-0.13,-0.16,0.16,102.31,79.12,28.00,6.19,-1.12,2.31,10,10
1771525290.370141,168003,0.59,-0.45,-0.33,-91.87,-82.62,61.75,-5.62,-6.87,1.12,-0.05,0.01,0.17,101.69,79.19,27.69,-4.12,-0.81,-1.75,9,11
1771525290.561195,168195,0.07,0.28,0.10,-69.37,-81.37,58.63,-28.31,-20.37,1.81,-0.06,0.00,0.08,99.62,79.56,28.12,-0.81,5.12,0.50,9,10
1771525290.751030,168384,0.11,0.21,0.18,-55.13,-80.87,56.19,-4.00,1.94,-2.87,-0.06,-0.01,0.07,99.75,79.37,28.12,-2.25,0.25,1.12,9,10
1771525290.941176,168574,0.14,0.16,-0.02,-61.44,-81.81,57.25,10.06,11.19,-1.37,-0.02,0.00,0.14,99.69,79.31,28.37,-2.06,-0.25,1.00,9,11
1771525291.132369,168766,0.58,-0.45,-0.07,-86.87,-81.75,60.94,39.31,15.63,8.25,-0.11,0.00,-0.05,99.56,79.19,28.31,0.31,-1.19,0.31,9,10
1771525291.324164,168957,0.17,-0.14,-0.08,-91.81,-82.00,62.63,-7.00,-2.25,0.06,-0.08,-0.04,-0.07,100.94,79.06,28.06,0.56,0.56,0.44,9,11
1771525291.515252,169148,0.43,-0.06,-0.10,-90.62,-81.81,61.81,-2.87,-0.69,-1.87,-0.04,0.01,0.00,99.12,79.25,28.25,0.13,0.44,-0.75,9,11
1771525291.705179,169338,-0.07,0.07,0.06,-78.81,-81.94,60.13,-27.75,-14.50,-2.50,-0.05,-0.04,0.17,98.44,79.37,28.12,2.94,-0.94,0.13,9,11
1771525291.894916,169528,0.15,0.17,0.17,-75.81,-81.62,57.88,7.50,5.50,0.94,-0.06,0.03,0.00,98.81,79.44,28.06,-0.62,-0.94,-0.56,10,12
1771525292.086655,169720,0.35,-0.11,-0.11,-93.25,-81.37,60.00,26.69,19.12,7.12,-0.07,-0.16,0.08,101.81,79.25,27.56,3.19,-1.44,0.37,8,10
1771525292.277456,169911,0.50,-0.09,-0.26,-109.19,-80.94,61.63,-4.87,-2.12,-2.87,-0.12,-0.09,0.05,102.00,79.31,27.69,-0.69,1.94,-1.06,8,10
1771525292.468528,170102,0.45,-0.03,0.00,-100.44,-81.19,61.06,-3.81,-2.81,1.94,-0.04,-0.03,0.04,101.00,79.56,27.94,-1.44,0.31,-0.13,8,10
1771525292.658177,170291,0.11,0.12,0.09,-92.56,-81.31,60.50,-1.44,-5.06,-0.94,-0.06,0.01,0.09,100.56,79.50,28.06,-0.88,-1.19,0.25,8,10
1771525292.848482,170482,0.49,-0.47,-0.21,-90.00,-81.56,60.81,-7.06,-6.81,-2.19,-0.06,0.00,0.03,101.25,79.50,28.06,1.31,-0.37,0.06,8,10
1771525293.039869,170673,-0.14,0.50,0.20,-67.06,-82.12,57.81,-17.44,-1.00,-3.69,-0.12,0.01,0.00,100.06,79.37,28.19,-0.13,-2.50,0.81,8,11
1771525293.230038,170864,0.30,-0.08,0.04,-70.81,-82.81,58.13,6.06,4.69,-1.81,-0.06,0.00,0.00,98.62,79.31,28.31,-1.50,2.25,0.00,7,9
1771525293.421823,171055,0.35,-0.27,0.09,-72.94,-83.00,59.69,6.56,-5.50,5.25,-0.07,-0.03,-0.02,99.87,79.37,28.37,1.37,0.75,-0.56,7,9
1771525293.611806,171245,-0.25,0.63,0.24,-74.25,-82.12,59.63,-1.19,14.38,-0.06,-0.07,-0.08,0.00,98.94,79.44,28.31,0.25,-4.87,1.00,7,9
1771525293.802014,171435,0.71,-0.42,-0.29,-106.69,-79.81,63.56,36.94,5.50,12.31,-0.03,-0.11,0.10,100.31,79.50,28.37,-1.37,1.06,-1.87,5,7
1771525293.993259,171626,1.00,-0.37,-0.43,-103.00,-80.19,64.81,-20.81,-10.44,-4.56,-0.02,-0.02,0.10,101.56,79.50,28.56,-0.50,2.25,-0.19,5,8
1771525294.183915,171817,-0.48,-0.11,0.41,-62.38,-80.69,59.75,-71.87,-41.25,-16.31,0.06,0.13,0.21,99.75,79.37,28.56,-1.50,-0.37,4.50,6,9
1771525294.375147,172009,0.82,0.10,-0.14,-49.38,-82.06,57.50,33.13,21.00,-4.44,-0.10,-0.07,0.20,102.12,78.75,27.87,4.69,-0.88,1.62,6,10
1771525294.564959,172198,-0.40,0.20,0.51,-50.94,-81.94,60.56,12.00,-7.06,7.12,-0.04,-0.04,0.10,100.19,78.44,27.75,-0.75,3.19,1.62,6,9
1771525294.755245,172389,0.48,-0.34,-0.08,-70.19,-82.00,63.31,13.75,7.81,0.06,0.02,-0.11,0.22,98.81,78.31,27.56,-2.69,1.87,0.31,7,9
1771525294.946423,172580,0.29,0.00,-0.10,-174.37,-84.37,65.69,4.25,25.56,-16.87,-0.09,0.05,-0.08,99.19,78.31,27.69,0.00,-2.19,0.00,7,9
1771525295.137230,172771,0.53,-0.25,-0.17,-175.50,-85.19,67.69,3.37,-11.38,2.37,-0.04,0.05,0.13,99.00,78.06,28.00,-5.94,-0.44,2.94,7,10
1771525295.328806,172962,0.12,-0.05,0.13,-174.25,-84.25,66.44,-3.44,-2.12,7.19,-0.12,-0.07,0.03,100.69,77.87,27.87,0.88,1.25,-3.19,8,10
1771525295.518617,173152,0.38,0.71,0.20,-173.50,-83.50,64.37,29.50,18.87,8.31,-0.18,-0.05,-0.15,101.37,78.31,28.25,-2.00,-0.06,-5.62,8,9
1771525295.708616,173342,0.30,-0.49,-0.20,-111.56,-82.06,68.31,5.25,4.00,1.81,-0.10,0.19,0.07,102.37,79.12,29.06,3.25,3.44,-2.87,9,10
1771525295.899956,173533,0.99,-0.30,-0.34,-107.69,-81.62,65.62,-31.50,-22.56,7.31,0.00,0.06,0.40,98.75,79.56,28.81,4.56,8.19,-3.31,8,10
1771525296.091171,173725,0.28,0.58,0.27,-101.56,-81.44,63.06,19.62,18.56,6.12,-0.18,0.05,-0.16,97.44,79.87,28.62,-0.25,0.69,-0.88,8,10
1771525296.282570,173916,0.13,-0.12,-0.14,-113.62,-80.19,65.69,-0.56,-7.94,-2.50,0.00,0.22,0.32,98.87,80.06,28.62,-4.62,-2.31,0.94,8,10
1771525296.472052,174106,0.46,0.53,0.14,-109.12,-80.50,64.25,-10.19,-9.06,-2.56,-0.17,-0.21,0.07,100.87,79.69,28.19,4.25,1.37,0.00,8,10
1771525296.662338,174296,0.82,-0.86,-0.23,-96.25,-81.06,63.06,-41.06,-21.50,-3.25,0.01,0.20,0.06,99.75,79.69,28.56,0.69,4.00,-0.44,8,10
1771525296.853535,174487,0.30,0.49,0.26,-76.62,-82.31,57.75,-14.13,3.50,-4.87,-0.06,-0.01,0.00,99.62,79.69,28.50,1.44,-1.25,0.44,8,10
1771525297.044255,174678,0.23,0.13,0.22,-76.62,-82.12,57.44,4.81,0.81,-3.00,-0.05,-0.01,0.17,100.37,79.62,28.44,-1.87,0.75,-0.25,7,9
1771525297.235690,174869,0.37,0.02,0.09,-82.19,-82.56,59.19,12.31,2.87,-0.94,-0.07,-0.07,0.08,99.94,79.62,28.62,-1.00,1.75,1.00,6,9
1771525297.425359,175059,0.02,0.34,0.15,-92.25,-82.50,61.75,28.75,16.56,4.69,-0.05,0.00,0.09,100.31,79.50,28.75,1.94,-4.81,-0.75,6,9
1771525297.615844,175249,0.34,-0.39,-0.23,-110.50,-80.44,65.37,0.81,-5.50,3.31,-0.06,0.04,0.03,104.44,79.31,28.25,1.94,-8.69,3.87,6,9
1771525297.807867,175441,0.32,0.00,0.05,-104.75,-80.31,63.56,-9.56,-5.31,2.62,-0.14,-0.08,-0.12,106.62,78.87,27.69,-1.06,-0.06,0.13,6,9
1771525297.998338,175632,0.20,0.11,0.09,-91.81,-80.31,61.44,-11.13,-16.12,-2.25,-0.05,0.04,0.11,103.62,79.19,28.19,1.00,-2.31,-0.37,6,9
1771525298.189443,175823,0.33,-0.27,0.04,-76.44,-80.81,60.25,-18.31,-15.06,-3.75,-0.07,0.08,0.15,103.31,79.37,28.37,0.62,3.87,-1.00,6,9
1771525298.379157,176012,0.17,0.49,0.23,-77.81,-81.56,59.06,14.81,20.81,-1.75,-0.14,-0.01,-0.06,103.31,79.50,28.50,-0.56,-1.25,-1.56,7,10
1771525298.569263,176203,0.41,-0.20,-0.12,-94.94,-81.50,62.06,9.00,1.69,1.00,-0.10,0.04,0.06,102.81,79.56,28.94,-1.25,-1.62,0.50,6,11
1771525298.760710,176394,0.31,-0.10,0.00,-94.12,-81.37,62.44,-1.87,-5.50,2.19,-0.10,-0.09,0.07,103.06,79.44,28.69,-0.06,-0.06,0.88,6,10
1771525298.951213,176585,0.15,0.04,0.06,-89.56,-81.31,62.13,0.75,1.56,-0.37,-0.19,-0.10,-0.02,103.12,79.37,28.62,1.37,1.94,-1.19,7,10
1771525299.142750,176776,0.44,-0.14,0.00,-91.06,-81.12,62.19,-0.94,0.75,3.31,-0.04,0.00,0.07,102.87,79.62,28.81,1.94,-0.50,-1.12,7,10
1771525299.332729,176966,0.34,-0.08,-0.04,-92.50,-80.56,61.81,5.00,4.94,3.62,-0.03,0.10,0.05,103.50,79.75,28.87,-2.50,1.00,-0.44,7,10
1771525299.522923,177156,0.39,-0.09,-0.04,-97.94,-79.75,61.69,4.31,1.62,2.81,-0.05,0.04,0.19,104.25,79.87,28.69,-0.13,-0.88,0.13,6,10
1771525299.714147,177348,0.54,0.08,-0.12,-96.25,-79.37,61.00,-4.87,-7.06,0.62,-0.10,0.00,0.05,105.25,79.75,28.75,-0.56,2.69,-1.19,6,8
1771525299.905599,177539,0.27,0.13,0.01,-87.06,-79.37,60.81,-2.75,-6.44,-2.31,-0.07,-0.05,0.07,105.06,79.75,28.94,-0.13,-0.19,0.88,5,8
1771525300.096331,177730,0.12,0.00,0.09,-84.31,-79.69,61.19,0.69,1.31,-1.87,-0.07,0.00,0.12,104.75,79.69,28.94,-0.75,0.50,0.69,6,8
1771525300.287125,177921,0.29,-0.06,-0.05,-85.37,-80.00,61.63,0.00,0.00,-0.88,-0.11,-0.08,0.03,104.25,79.62,28.87,0.06,-0.75,0.69,6,8
1771525300.477226,178111,0.24,-0.05,-0.01,-84.06,-80.06,61.75,0.25,-1.87,-0.06,-0.13,-0.06,0.07,104.19,79.62,28.94,0.62,-1.87,-0.06,6,7
1771525300.668398,178302,0.25,0.02,0.06,-81.87,-80.06,61.81,-1.37,-1.69,0.00,-0.08,-0.08,0.04,104.44,79.56,28.87,-0.37,-0.50,0.19,6,9
1771525300.858866,178492,0.17,-0.07,-0.06,-81.12,-80.25,62.00,-0.75,0.37,-1.37,-0.12,-0.07,-0.04,104.69,79.56,29.00,1.31,1.37,-0.50,6,8
1771525301.049977,178684,0.13,0.32,0.09,-75.94,-81.06,59.94,-19.94,6.00,-8.50,-0.08,-0.05,0.00,103.75,79.50,28.94,0.44,-0.69,0.37,6,8
1771525301.239974,178873,0.29,-0.14,0.10,-78.62,-81.81,59.69,4.94,-0.25,-0.56,-0.11,-0.01,0.04,104.06,79.44,28.87,-0.75,-0.81,-0.50,5,7
1771525301.429728,179064,0.24,0.00,0.00,-79.62,-81.69,60.06,2.94,1.25,2.62,-0.10,0.00,-0.04,104.31,79.56,28.94,0.06,0.81,-0.37,5,6
1771525301.621891,179256,0.36,-0.02,0.00,-80.37,-81.37,60.50,3.81,1.94,0.31,-0.11,-0.01,0.09,103.12,79.62,29.12,-0.94,-0.06,0.37,5,6
1771525301.812179,179446,0.13,0.50,0.02,-81.75,-81.37,60.69,6.44,2.44,-0.13,-0.13,-0.12,0.12,101.69,79.50,29.19,-2.50,-2.31,1.56,5,5
1771525302.003594,179637,0.32,-0.45,-0.06,-90.81,-80.25,64.44,25.19,-1.06,6.62,-0.09,-0.08,0.03,101.75,79.37,29.31,1.00,1.12,0.62,4,5
1771525302.193710,179827,0.24,-0.20,-0.02,-90.37,-79.94,66.44,0.06,-1.44,-1.75,-0.08,-0.02,0.03,101.62,79.31,29.31,-0.19,0.31,0.13,3,5
1771525302.383858,180018,0.35,-0.13,-0.10,-91.62,-79.94,66.81,2.94,1.06,2.37,-0.05,-0.07,0.16,102.00,79.37,29.31,1.69,1.00,-0.37,3,5
1771525302.574761,180208,0.05,-0.05,-0.03,-90.44,-79.25,66.06,-4.69,-2.75,5.12,0.00,0.04,0.26,100.12,79.44,29.31,-0.69,6.12,-0.69,3,4
1771525302.766256,180400,0.30,0.08,-0.08,-89.44,-78.75,65.25,2.94,-1.75,0.06,-0.11,-0.09,0.07,100.56,79.44,29.50,-0.50,-0.69,0.56,3,4
1771525302.957310,180591,0.18,-0.09,0.02,-87.94,-79.00,66.19,2.00,-0.56,-1.56,-0.06,-0.06,0.14,100.87,79.37,29.56,-2.50,0.25,0.37,3,4
1771525303.147296,180781,0.20,-0.14,0.08,-88.12,-79.12,66.62,0.37,-2.75,-0.25,-0.03,0.03,-0.03,101.50,79.44,29.69,0.94,1.06,-0.13,2,4
1771525303.337512,180971,0.27,0.10,-0.07,-89.44,-79.19,66.50,-0.62,3.81,-3.56,-0.09,-0.07,0.16,100.25,79.37,29.50,0.69,-0.13,-0.13,2,4
1771525303.528635,181162,0.36,-0.12,-0.14,-94.25,-79.25,68.00,17.87,1.69,5.94,-0.18,-0.13,-0.03,101.75,79.37,29.50,1.69,-3.44,0.13,2,5
1771525303.719094,181353,0.21,-0.34,0.06,-89.62,-78.87,68.75,-12.25,-9.25,3.37,-0.08,-0.02,0.23,102.50,79.50,29.00,0.44,2.19,-2.81,3,5
1771525303.910797,181544,0.44,0.19,0.04,-75.75,-78.00,63.69,-31.87,-2.75,2.81,-0.28,-0.04,0.00,103.12,79.87,29.31,5.87,-0.69,-2.37,3,6
1771525304.100889,181734,-0.41,1.84,0.30,-69.94,-77.75,57.38,-17.12,17.81,-2.87,-0.12,-0.04,0.00,100.31,80.25,29.37,-0.75,0.56,0.94,5,8
1771525304.290743,181925,0.67,-0.73,-0.09,-98.56,-76.94,64.50,51.44,5.69,2.87,0.05,0.11,0.19,100.00,80.25,29.50,0.31,3.00,0.44,6,8
1771525304.483134,182116,0.43,-0.08,-0.15,-102.25,-77.69,67.37,-8.75,-2.06,-2.00,-0.13,-0.06,0.00,99.19,80.19,29.37,-0.50,-1.87,1.00,7,9
1771525304.672987,182307,0.16,-0.03,0.15,-97.31,-78.25,65.81,-14.25,-3.56,-1.94,-0.12,-0.08,0.07,99.25,80.00,29.19,0.56,3.00,-1.06,7,10
1771525304.864480,182498,0.39,0.10,0.04,-90.19,-78.37,62.31,-27.62,-5.62,-0.81,-0.13,-0.05,0.08,97.37,80.12,28.81,3.75,3.12,-0.88,7,10
1771525305.054052,182688,0.47,0.15,0.01,-79.44,-78.06,58.81,-9.25,-10.94,0.62,-0.06,0.05,0.00,98.37,80.37,28.94,2.50,0.13,-1.19,8,10
1771525305.244714,182878,-0.04,0.10,0.25,-66.81,-77.25,56.94,-19.94,-6.19,-2.94,0.00,0.00,0.18,101.00,80.37,28.50,1.31,-4.25,-0.19,8,10
1771525305.436119,183070,0.44,0.23,-0.14,-67.25,-78.87,55.06,-3.37,11.81,-4.62,-0.04,0.01,0.16,102.56,80.12,28.12,0.37,1.12,0.37,8,9
1771525305.626418,183260,0.33,0.02,0.03,-74.00,-79.75,56.50,13.56,2.50,-2.81,-0.07,-0.07,-0.01,101.56,80.12,28.25,-4.31,1.50,0.06,8,10
1771525305.817787,183452,0.25,-0.08,0.11,-76.06,-79.75,58.63,7.19,0.13,0.37,-0.09,0.04,0.03,101.12,80.12,28.94,-2.37,0.88,0.69,7,10
1771525306.007720,183641,0.57,-0.22,-0.02,-81.69,-79.19,60.63,22.44,-1.12,7.50,-0.07,-0.02,0.12,100.62,79.94,29.19,-1.06,0.69,0.88,7,10
1771525306.198055,183832,0.21,0.11,0.03,-80.44,-78.75,62.00,3.94,0.56,-0.81,-0.11,-0.09,0.09,99.69,79.75,29.00,-0.81,-0.56,0.56,7,10
1771525306.389919,184024,0.27,-0.26,0.03,-79.50,-78.94,63.88,6.81,-6.06,-0.37,-0.08,0.01,0.07,100.00,79.75,29.06,-0.62,1.31,-0.62,6,9
1771525306.580117,184214,0.13,0.15,0.00,-76.12,-78.75,63.75,-3.00,-1.12,-0.75,-0.07,-0.04,0.00,99.87,79.81,29.06,3.62,-1.19,-0.56,6,9
1771525306.771657,184405,0.41,-0.30,-0.01,-73.87,-78.56,63.13,-13.25,-5.19,0.69,-0.06,0.03,0.12,100.62,79.94,29.19,2.00,3.00,-1.12,7,9
1771525306.961636,184595,0.22,0.89,0.02,-71.44,-79.25,60.50,5.69,11.38,-1.06,-0.09,-0.06,0.01,100.12,80.00,29.25,-1.06,-0.81,-0.69,7,10
1771525307.151994,184785,0.37,-0.25,-0.09,-79.62,-79.37,63.75,6.00,-5.75,-0.06,-0.16,0.00,-0.01,100.62,79.94,29.19,2.19,-6.19,2.62,8,10
1771525307.342610,184976,0.26,0.01,0.03,-77.62,-79.06,63.75,-1.62,0.56,2.75,-0.13,-0.10,0.12,101.94,79.56,28.06,-0.19,-3.69,0.19,8,10
1771525307.533156,185167,0.18,-0.03,0.12,-76.00,-79.00,63.44,-0.06,-0.25,3.19,-0.10,0.00,0.05,102.00,79.81,28.37,0.25,1.31,-2.12,7,8
1771525307.724923,185359,0.44,0.03,-0.07,-76.19,-78.56,62.56,-3.75,0.06,2.56,-0.05,0.02,0.01,101.44,80.19,28.31,1.87,0.06,-0.50,7,8
1771525307.914886,185549,0.15,0.16,-0.01,-74.00,-78.25,61.56,-6.06,1.12,-0.88,-0.12,0.03,-0.01,103.44,79.94,27.87,1.75,-1.94,1.75,6,8
1771525308.105327,185739,0.32,-0.07,-0.01,-73.00,-78.56,61.00,-5.75,-2.62,-4.19,-0.08,-0.07,0.06,102.62,79.75,27.87,-3.81,2.50,0.44,6,8
1771525308.296277,185930,0.36,0.03,-0.08,-65.00,-79.94,60.19,-16.62,-1.81,-11.31,-0.06,-0.01,0.07,101.19,79.50,27.87,0.00,2.19,1.19,8,9
1771525308.486823,186120,0.00,-0.17,0.00,-56.25,-80.69,59.69,-19.12,-5.37,-4.25,0.00,-0.06,0.20,100.12,79.44,28.06,-0.75,-3.62,0.81,8,9
1771525308.678248,186312,0.41,0.10,-0.01,-52.75,-81.62,58.25,1.06,1.31,-1.56,-0.07,-0.04,0.05,100.31,79.44,27.81,1.31,2.37,-1.37,8,9
1771525308.868092,186502,0.23,0.00,0.01,-55.50,-81.37,59.00,7.19,2.62,5.19,-0.14,-0.01,0.06,101.19,79.56,28.37,-3.31,-0.75,-0.75,7,10
1771525309.058387,186692,0.13,0.53,0.05,-66.31,-81.12,59.88,21.25,7.62,9.56,-0.09,-0.11,0.10,100.44,79.56,28.62,-4.31,-0.37,0.75,8,12
1771525309.249453,186883,0.59,-0.40,-0.29,-82.06,-79.75,63.25,10.19,-6.19,0.56,-0.05,0.15,0.10,101.12,79.62,29.06,-2.06,1.19,0.88,8,11
1771525309.440649,187074,0.18,-0.07,0.15,-74.69,-80.00,63.94,0.25,-6.12,-8.00,-0.07,-0.16,0.18,98.56,79.44,28.50,6.50,-0.25,-0.06,8,12
1771525309.631986,187266,0.21,-0.27,0.01,-69.69,-80.06,64.31,-3.37,-4.62,5.19,-0.07,0.18,0.12,99.50,79.69,28.31,-2.19,-1.69,-1.56,8,11
1771525309.822004,187456,0.41,-0.07,0.00,-70.31,-79.19,62.63,-7.31,-1.69,2.56,-0.09,-0.01,0.03,100.50,79.87,28.44,-0.56,-0.44,0.50,7,12
1771525310.011983,187646,0.08,0.26,0.08,-63.75,-79.87,59.69,-29.56,3.31,-10.56,-0.08,0.02,-0.03,100.06,79.75,28.50,0.06,0.00,0.13,7,11
1771525310.203864,187838,0.21,0.07,0.03,-63.50,-80.69,58.13,2.50,4.94,-0.62,-0.11,-0.07,0.13,98.81,79.75,28.37,-0.31,0.44,0.50,5,11
1771525310.394331,188028,0.28,0.75,-0.09,-72.62,-81.00,59.44,36.06,7.25,6.25,-0.15,0.03,-0.05,98.81,79.75,28.69,-2.31,0.25,-0.69,6,11
1771525310.585611,188219,0.01,-0.48,0.11,-83.44,-79.25,64.06,1.87,-2.19,0.44,-0.10,-0.09,0.21,95.94,79.75,28.56,-0.06,0.50,2.19,6,11
1771525310.775849,188410,0.36,-0.36,0.03,-81.69,-79.87,64.06,1.12,-1.69,-1.69,-0.09,0.00,0.09,96.94,79.69,28.37,-1.31,0.00,-0.13,5,10
1771525310.965903,188600,0.19,0.11,0.01,-77.56,-79.56,62.56,-7.75,-0.88,-2.62,-0.11,0.08,-0.09,99.06,79.75,28.56,3.19,1.56,-0.81,5,8
1771525311.156599,188790,0.14,0.35,0.08,-72.00,-79.87,59.25,-21.31,4.87,-5.87,-0.10,0.00,0.01,99.25,79.75,28.25,0.37,-1.81,-1.31,6,10
1771525311.348077,188982,0.14,-0.23,0.02,-80.75,-79.44,59.50,41.56,9.56,14.63,-0.06,-0.11,0.06,100.37,79.87,28.19,1.12,-1.00,-0.50,6,10
1771525311.539044,189173,0.30,-0.27,-0.17,-87.81,-78.37,62.56,0.00,-4.06,2.25,-0.03,0.08,0.13,100.50,80.00,28.62,-0.69,3.19,-0.06,6,10
1771525311.728875,189363,0.20,0.16,-0.04,-84.56,-78.31,62.13,-2.44,-1.56,-0.44,-0.05,-0.01,0.03,100.06,79.87,28.62,-0.50,0.62,1.69,5,9
1771525311.919232,189553,0.20,-0.21,0.03,-82.19,-78.94,62.50,1.87,-0.81,-3.12,-0.13,-0.09,0.06,100.12,79.75,28.62,-0.25,0.19,-0.81,5,9
1771525312.110586,189744,0.30,-0.07,-0.08,-82.62,-79.06,62.69,-1.62,2.44,1.00,-0.08,-0.15,-0.09,101.50,79.81,28.69,0.81,-1.75,-0.13,5,7
1771525312.300983,189935,0.13,0.25,0.01,-81.31,-78.94,62.38,-2.44,-1.00,0.50,-0.03,-0.06,0.14,101.12,79.94,28.69,-2.25,-2.31,-0.31,5,8
1771525312.492310,190126,0.17,0.13,0.00,-78.25,-78.69,61.81,-1.87,-6.00,1.00,-0.18,-0.24,0.16,100.37,79.69,28.94,1.44,-0.37,2.87,6,9
1771525312.682605,190316,0.25,-0.49,0.09,-74.12,-78.87,62.38,-0.94,-3.94,-3.00,-0.08,-0.14,0.21,100.06,79.69,28.69,1.25,1.44,-0.44,6,9
1771525312.872501,190506,-0.01,0.12,0.03,-66.06,-79.19,60.44,-27.19,-1.44,-2.62,-0.02,0.10,0.23,99.56,79.87,28.56,1.50,3.56,-3.75,6,11
1771525313.064010,190698,0.27,0.23,-0.03,-68.69,-79.25,58.63,2.12,2.87,1.06,-0.01,0.00,0.02,102.31,80.19,28.69,-0.94,-0.31,0.13,5,10
1771525313.254707,190888,0.68,0.05,-0.06,-76.12,-78.37,60.06,35.25,7.94,7.37,-0.16,-0.16,-0.10,106.69,79.62,28.37,3.31,-1.00,0.13,6,11
1771525313.445905,191080,0.21,-0.19,0.06,-78.69,-78.50,63.69,7.87,-1.81,0.19,-0.13,-0.12,0.03,102.87,79.81,28.81,-3.75,8.94,-2.12,6,10
1771525313.636728,191270,0.38,-0.35,-0.05,-76.94,-78.69,64.69,-1.62,0.69,0.81,-0.10,-0.02,-0.04,103.00,80.00,28.94,2.00,-2.00,0.37,7,11
1771525313.826441,191460,0.29,0.00,0.00,-74.12,-78.44,63.50,-5.44,-3.69,0.62,-0.06,-0.01,0.06,102.81,80.00,28.87,-0.75,1.37,-0.25,7,10
1771525314.017820,191651,0.29,-0.58,-0.08,-68.19,-78.25,61.69,-23.37,-4.81,-0.50,-0.11,0.14,-0.05,102.44,80.25,29.00,-0.56,-1.25,-0.19,6,11
1771525314.208317,191842,-0.01,0.97,0.19,-63.63,-78.81,59.25,36.56,11.44,4.37,0.13,0.22,-0.02,102.81,80.19,28.62,0.62,-0.37,-0.56,7,10
1771525314.399560,192033,0.31,-0.60,0.07,-91.44,-80.56,65.87,13.38,16.25,-7.31,-0.08,0.08,0.04,104.19,80.06,28.37,-2.81,4.69,-0.75,8,10
1771525314.589679,192223,1.22,-0.28,-0.29,-104.62,-80.94,66.00,-5.75,-7.75,1.75,-0.09,-0.11,-0.04,102.87,80.06,28.81,0.37,4.69,-1.69,9,10
1771525314.779449,192413,0.03,0.33,0.09,-88.37,-80.37,64.81,-3.06,0.62,-1.06,-0.04,0.03,0.10,103.25,80.19,28.69,3.06,-7.06,0.19,9,10
1771525314.971148,192605,0.69,-0.21,-0.09,-94.06,-80.00,64.75,-5.81,-13.75,4.75,-0.11,-0.03,0.00,103.81,80.37,28.69,-3.19,-1.81,-0.81,10,11
1771525315.161367,192795,-0.25,0.34,0.15,-82.37,-79.37,63.63,1.19,-2.12,-4.06,0.00,0.20,0.02,102.44,80.75,29.12,-1.06,-4.12,0.50,10,11
1771525315.352917,192987,-0.66,-0.06,0.71,-98.56,-80.12,65.12,13.63,44.88,-3.94,-0.15,0.07,-0.56,108.62,80.75,29.00,4.69,-26.50,-0.56,11,13
1771525315.542546,193176,1.07,0.84,0.18,-114.81,-77.19,55.13,-128.06,-29.37,13.50,0.07,-0.16,0.16,112.12,81.25,29.50,-4.31,36.56,-12.81,13,14
1771525315.732584,193367,0.12,1.10,0.24,-98.25,-76.12,50.50,91.00,17.75,9.56,-0.07,0.15,0.00,99.06,82.69,30.06,-8.94,-2.75,1.62,13,15
1771525315.925086,193559,0.90,-1.12,-0.26,-123.44,-76.19,63.25,5.75,11.81,-12.94,-0.39,-0.04,-0.54,100.50,82.44,30.81,-2.44,-1.44,6.75,14,14
1771525316.115325,193749,-0.18,0.69,0.12,-117.06,-78.81,61.75,-22.75,-29.50,-35.56,0.13,-0.14,0.88,80.81,82.81,33.38,-17.31,1.00,-7.00,13,15
1771525316.306482,193940,0.35,-0.38,-0.26,178.69,-85.06,71.19,-13.56,2.44,-55.63,-0.12,-0.09,-0.35,90.44,82.19,32.13,-1.12,4.87,9.00,12,13
1771525316.496350,194130,0.00,-0.25,-0.10,116.56,-81.50,75.69,-4.75,-11.81,-7.94,-0.11,-0.04,0.11,86.56,80.69,31.62,-5.62,-5.06,9.50,11,12
1771525316.686654,194320,0.39,-0.15,-0.04,106.06,-78.62,76.12,-25.50,-18.50,-28.62,-0.11,0.06,-0.22,97.19,78.94,29.12,7.00,-1.56,11.06,11,10
1771525316.877370,194512,0.16,-1.12,0.44,90.81,-77.25,75.37,8.56,-14.50,3.75,-0.19,-0.39,0.96,90.87,77.69,26.00,-16.12,3.87,11.19,11,9
1771525317.068339,194702,0.60,0.12,-0.16,90.87,-76.81,73.69,3.62,-5.62,-12.69,-0.29,-0.03,-0.61,93.31,76.69,26.25,10.13,-22.94,5.94,11,9
1771525317.259533,194894,0.21,0.27,0.35,83.06,-77.75,74.94,17.19,5.37,14.75,-0.04,-0.12,0.04,96.75,76.25,26.12,-1.50,-7.62,4.12,9,7
1771525317.449200,195083,-0.03,0.20,0.08,91.44,-79.25,75.94,18.31,11.25,8.31,0.05,-0.01,0.12,97.87,75.56,26.06,-6.69,5.94,2.81,7,6
1771525317.639425,195274,0.80,0.13,-0.29,112.31,-79.94,79.06,27.25,26.87,7.44,0.20,-0.47,0.01,99.31,74.94,25.37,0.56,23.37,-10.75,7,5
1771525317.831481,195465,0.16,-0.04,-0.48,130.44,-80.87,80.37,-3.19,17.87,8.25,-0.18,-0.04,-0.02,101.19,74.87,25.75,6.44,8.00,-5.12,7,5
1771525318.022165,195656,0.51,-0.10,0.32,137.62,-81.75,78.50,-8.56,-8.63,11.31,0.12,-0.14,-0.04,100.87,75.56,26.00,0.06,-6.56,-1.50,7,4
1771525318.213482,195847,0.32,-0.27,-0.44,148.31,-82.19,75.94,-3.94,10.31,-5.06,-0.18,-0.17,-0.16,107.25,75.81,25.31,-12.56,5.19,-5.44,7,4
1771525318.403007,196037,-0.41,0.17,0.23,177.44,-84.12,74.19,12.75,-22.19,20.37,-0.12,-0.19,-0.04,102.94,77.50,27.94,11.00,32.38,-20.62,10,5
1771525318.593271,196227,-0.08,-0.21,-0.20,-178.44,-86.69,72.44,8.75,3.12,29.12,-0.10,0.05,0.17,96.87,80.12,29.00,2.06,-19.50,2.75,13,6
1771525318.784483,196419,0.10,0.94,0.19,-175.44,-84.31,68.37,-2.37,-18.56,3.81,-0.02,0.18,0.30,92.12,80.87,29.87,10.75,16.81,-9.88,12,6
1771525318.975357,196609,0.53,0.25,-0.41,-175.87,-84.75,68.87,-1.87,7.00,-2.87,-0.02,0.11,0.11,86.75,81.31,30.62,-2.81,0.62,3.31,12,6
1771525319.167062,196801,0.38,-0.23,-0.05,-176.56,-84.94,69.31,-7.75,1.37,-3.00,-0.02,-0.07,-0.06,89.00,80.56,30.00,-6.12,3.25,1.75,14,7
1771525319.356803,196991,0.10,-0.03,0.00,-176.75,-85.37,68.25,-4.87,-0.50,-3.25,-0.18,-0.09,-0.02,90.87,80.06,29.31,0.13,-8.69,2.81,14,6
1771525319.546743,197181,0.20,0.09,-0.05,-176.75,-85.50,67.56,-1.50,2.19,3.94,-0.11,0.02,-0.09,92.44,80.12,29.50,1.75,-8.31,1.69,16,7
1771525319.738269,197372,0.33,0.06,0.05,-176.69,-85.50,66.94,-7.00,-7.44,0.44,-0.16,-0.15,0.06,95.62,79.75,28.50,1.56,-4.44,-2.06,15,8
1771525319.928816,197563,0.07,-0.26,-0.15,-176.19,-85.50,66.69,8.25,7.19,10.31,-0.06,0.21,-0.12,100.37,80.19,29.06,3.62,-9.94,1.37,15,9
1771525320.120219,197754,0.22,0.36,0.03,-118.37,-81.87,63.31,-5.50,-0.75,15.44,-0.11,-0.16,0.23,107.44,79.44,27.56,7.06,-15.13,1.62,15,9
1771525320.310363,197944,0.33,0.14,-0.05,-119.81,-81.06,60.75,-8.75,-3.50,-3.62,-0.07,-0.10,0.14,115.37,78.44,26.31,0.94,-0.06,-1.44,14,9
1771525320.500446,198134,0.26,-0.26,0.07,-116.75,-82.50,61.44,6.31,-5.19,-1.94,-0.08,0.00,-0.03,118.06,78.19,25.87,-0.62,-1.06,0.81,10,8
1771525320.691828,198326,0.36,-0.01,-0.11,-113.75,-81.50,60.94,2.62,4.94,3.12,-0.05,-0.02,-0.06,114.50,78.25,26.44,-4.12,-0.69,1.87,10,8
1771525320.882417,198516,0.57,-0.58,-0.18,-107.81,-81.75,60.50,-10.69,-19.50,5.06,-0.12,-0.05,0.04,112.87,78.69,27.69,0.88,8.13,-2.50,10,9
1771525321.073931,198708,-0.19,0.28,0.38,-75.00,-82.06,57.63,-4.62,-0.88,-5.56,-0.15,-0.08,0.01,110.50,79.00,26.69,8.56,-5.56,0.44,9,7
1771525321.264195,198899,0.31,0.64,0.34,-82.31,-82.62,58.13,13.50,7.12,0.94,0.00,0.27,0.05,110.94,79.19,26.87,0.44,0.00,-1.06,9,8
1771525321.454381,199088,0.34,-0.06,-0.05,-97.37,-81.62,60.94,9.63,6.19,3.62,-0.17,-0.04,-0.18,111.50,78.94,26.94,-3.31,0.88,3.31,8,8
1771525321.645439,199279,0.14,-0.27,0.10,-105.62,-82.00,61.94,3.19,0.13,-2.25,-0.02,-0.06,0.16,107.56,78.81,26.75,1.19,-3.62,3.50,9,8
1771525321.836316,199470,0.46,-0.02,0.03,-111.62,-82.25,62.31,0.81,2.06,-1.81,-0.12,-0.14,0.01,106.19,78.44,26.31,-2.44,4.12,-0.25,9,8
1771525322.027095,199661,0.24,0.16,-0.03,-113.31,-82.06,62.94,7.81,1.00,1.06,-0.05,0.07,0.20,105.00,78.44,26.87,0.25,1.56,0.31,10,8
1771525322.217082,199851,0.36,-0.05,-0.16,-117.69,-81.94,64.44,2.56,2.12,0.50,-0.09,0.00,0.01,104.50,78.37,26.69,-0.94,-1.75,0.56,9,8
1771525322.407474,200041,0.54,-0.37,-0.09,-108.87,-82.37,64.00,-9.25,-20.31,2.00,-0.08,-0.03,0.04,104.37,78.37,26.75,0.62,1.44,-1.44,10,8
1771525322.599251,200233,0.06,0.49,0.42,-82.37,-83.06,60.44,-20.12,0.56,-5.12,-0.13,0.05,-0.11,103.25,78.62,27.19,-0.06,-0.75,-0.56,9,8
1771525322.789564,200424,0.11,0.14,-0.02,-84.62,-83.06,59.63,2.12,6.19,1.12,-0.06,0.00,0.15,104.06,78.81,27.62,-4.44,1.19,-1.31,9,7
1771525322.980756,200615,0.52,-0.13,0.02,-103.87,-82.00,62.69,39.94,10.69,7.31,-0.06,0.09,-0.12,104.87,78.81,28.12,-0.25,0.06,0.19,10,8
1771525323.170580,200805,0.07,-0.04,0.08,-105.50,-81.69,64.87,-5.50,-2.25,-1.44,-0.08,-0.04,0.10,105.00,78.56,27.31,1.94,-0.25,2.44,8,7
1771525323.360740,200995,0.27,-0.02,0.06,-105.75,-82.00,64.56,0.19,-3.62,-2.37,-0.08,0.06,0.03,103.12,78.37,27.12,-1.31,3.94,0.44,7,6
1771525323.552695,201187,0.22,0.02,-0.06,-105.50,-82.25,64.44,-0.88,3.19,-1.81,-0.14,-0.06,0.06,102.19,78.25,27.06,0.06,0.19,0.94,6,7
1771525323.743428,201378,0.16,-0.10,0.06,-106.94,-82.50,64.81,1.31,-1.12,-0.44,-0.09,-0.03,0.00,102.19,78.19,26.94,1.19,-0.81,0.06,8,7
1771525323.934613,201569,0.49,-0.22,-0.13,-105.06,-82.44,64.50,-4.12,-5.94,2.00,-0.06,-0.13,0.03,102.37,78.31,26.69,1.69,-3.31,-1.25,8,8
1771525324.124171,201758,0.20,0.29,0.20,-92.75,-82.50,62.00,-15.75,1.06,-2.00,-0.07,0.08,-0.03,103.00,78.56,26.94,-1.37,-0.06,-1.75,7,8
1771525324.314376,201948,0.19,0.41,-0.03,-98.50,-82.00,61.19,13.19,8.81,2.50,-0.11,-0.04,-0.01,103.81,78.62,27.12,-1.19,0.44,-0.81,7,8
1771525324.505249,202140,0.52,-0.39,-0.08,-109.94,-81.25,64.44,13.31,0.25,2.56,0.00,0.04,0.05,104.62,78.31,27.00,4.87,-3.06,3.37,7,9
1771525324.700888,202330,0.13,-0.05,0.06,-110.37,-81.37,64.81,-4.81,-1.12,-2.06,-0.08,0.01,0.11,104.44,78.00,26.44,-2.81,1.81,-0.75,8,9
1771525324.887607,202522,0.23,-0.08,0.02,-110.50,-81.62,64.62,-3.06,-2.50,1.62,-0.04,-0.01,0.12,103.94,78.06,26.69,0.94,1.19,-0.62,7,9
1771525325.078365,202712,0.28,-0.01,-0.04,-109.94,-81.56,64.25,-0.88,1.50,0.06,-0.05,0.00,0.01,103.62,78.12,26.62,1.12,0.56,-0.56,7,9
1771525325.268701,202903,0.22,-0.01,0.03,-109.37,-81.62,64.25,0.50,-0.94,0.13,-0.09,0.00,0.00,103.50,78.19,26.62,-0.25,0.31,0.00,8,9
1771525325.460074,203094,0.28,-0.13,-0.02,-109.31,-81.75,64.25,-1.44,0.06,-0.81,-0.05,0.01,0.04,103.44,78.19,26.75,-0.44,-0.69,0.06,7,9
1771525325.650504,203284,0.06,-0.15,0.02,-101.25,-82.19,63.31,-19.00,-15.63,-3.37,-0.05,0.03,0.17,102.87,78.31,26.69,2.94,1.87,-2.00,5,8
1771525325.841176,203475,0.12,0.44,0.21,-98.00,-82.62,61.44,10.69,12.50,3.19,-0.02,0.07,0.05,101.94,78.62,26.81,0.94,-2.69,-1.50,6,9
1771525326.030857,203665,0.44,-0.25,-0.22,-115.12,-80.75,63.63,12.56,6.69,6.56,-0.09,0.00,0.11,105.31,78.50,26.12,1.75,-4.50,1.37,6,9
1771525326.221163,203855,0.38,0.06,-0.09,-116.56,-80.12,63.06,-4.12,-3.12,-1.31,-0.05,-0.02,0.02,105.87,78.37,26.19,-1.19,0.00,-1.12,6,9
1771525326.412648,204047,0.13,0.03,0.08,-111.06,-80.37,63.44,0.81,-3.50,-0.25,-0.13,0.06,-0.01,105.87,78.44,26.37,0.13,0.06,0.25,6,8
1771525326.603494,204238,0.26,0.03,0.01,-109.00,-80.56,63.44,-1.31,-1.69,-0.88,-0.10,0.00,0.10,105.94,78.44,26.56,-2.37,0.13,0.69,7,9
1771525326.794842,204429,0.30,-0.07,-0.04,-109.00,-80.94,63.56,-0.31,-1.19,-2.12,-0.08,-0.05,0.11,106.00,78.31,26.81,-0.62,0.50,0.56,7,9
1771525326.985184,204619,0.20,-0.13,0.04,-108.56,-81.25,64.12,0.62,0.37,-0.37,-0.06,-0.01,0.04,105.87,78.31,26.81,0.44,0.56,-0.69,7,8
1771525327.175187,204809,0.39,-0.06,-0.11,-107.75,-81.25,64.00,-2.44,-3.44,1.75,-0.09,-0.02,0.09,106.06,78.37,26.87,0.75,-0.44,-0.56,7,8
1771525327.366560,205001,0.06,0.10,0.16,-99.06,-81.75,62.69,-12.88,-2.44,-3.12,-0.11,-0.04,0.04,105.87,78.44,26.87,0.44,-0.62,-0.25,7,8
1771525327.557344,205192,0.27,0.02,0.05,-101.12,-81.81,62.25,3.44,4.44,-1.44,-0.11,0.00,0.08,105.69,78.44,27.06,-0.37,-0.37,0.44,8,7
1771525327.748370,205382,0.23,-0.27,-0.10,-108.87,-81.50,63.56,8.13,6.12,1.87,-0.11,-0.02,0.03,105.69,78.44,27.12,-0.81,-2.06,1.25,8,7
1771525327.938370,205572,0.13,-0.09,0.06,-109.62,-81.56,63.69,-0.37,-2.37,-1.56,-0.02,0.00,0.20,106.44,78.25,26.75,0.44,-1.75,0.75,8,6
1771525328.128611,205763,0.35,0.05,0.06,-109.69,-81.62,63.81,0.06,0.44,0.25,-0.08,0.04,0.03,106.50,78.19,26.87,-0.25,2.31,-1.31,8,6
1771525328.319909,205954,0.10,0.14,0.02,-107.62,-81.56,63.94,0.13,0.88,-0.56,-0.10,-0.01,0.10,105.44,78.25,26.94,-0.13,-0.50,0.62,8,7
1771525328.510684,206145,0.22,-0.09,0.00,-107.87,-81.87,65.06,5.37,-4.12,-0.13,-0.10,0.00,0.12,105.06,78.25,26.94,0.31,-0.88,0.13,8,7
1771525328.702008,206336,0.59,-0.99,-0.14,-103.06,-82.19,65.00,-29.62,-12.31,-3.37,-0.04,-0.04,0.19,104.62,78.31,27.00,0.31,-0.37,0.56,9,8
1771525328.890990,206525,0.28,0.28,0.16,-95.94,-82.75,61.38,10.31,5.00,5.00,-0.07,0.00,0.00,104.69,78.37,27.00,-0.50,-0.81,-0.62,9,9
1771525329.081459,206716,0.27,-0.07,-0.04,-101.06,-82.19,62.94,6.12,-0.13,1.44,-0.05,0.04,0.15,104.37,78.44,27.00,-0.62,0.31,1.00,10,9
1771525329.272917,206907,0.36,-0.14,0.04,-101.94,-82.31,63.50,1.56,-3.50,-1.06,0.00,-0.01,0.18,103.50,78.37,27.06,-0.62,-0.31,1.06,10,9
1771525329.464237,207098,0.19,-0.06,0.05,-101.06,-82.37,63.56,0.50,-1.62,1.31,-0.05,0.00,0.04,103.75,78.31,27.06,-0.19,-0.13,-0.62,9,9
1771525329.655054,207289,0.38,-0.02,-0.08,-101.87,-82.25,63.50,-0.81,0.31,0.94,-0.10,0.03,0.09,104.19,78.25,27.00,0.62,-0.06,-0.69,8,7
1771525329.844438,207479,0.23,0.02,0.00,-102.12,-82.25,63.44,0.81,1.69,-0.50,-0.03,0.00,0.04,104.19,78.31,27.00,-0.13,0.06,0.19,7,8
1771525330.035100,207669,0.23,-0.05,0.02,-102.75,-82.31,63.63,0.44,-0.62,-0.69,-0.05,0.00,0.09,104.00,78.31,27.00,-0.31,0.50,-0.25,6,7
1771525330.227037,207861,0.33,-0.35,-0.03,-98.06,-82.50,63.00,-15.13,-11.94,1.25,-0.03,0.06,0.15,104.31,78.31,27.06,1.06,0.06,-0.81,6,6
1771525330.417575,208052,0.35,0.28,0.05,-6.81,-83.12,59.88,-5.50,4.56,-1.44,-0.12,-0.04,0.02,104.37,78.37,27.06,0.56,0.37,-0.69,7,7
1771525330.608633,208243,0.10,-0.01,0.06,-93.44,-82.94,60.44,7.87,5.25,2.62,-0.07,0.02,0.11,104.12,78.50,27.19,0.13,-0.06,-0.19,6,6
1771525330.798067,208433,0.21,-0.16,-0.11,-107.12,-81.87,61.69,15.06,9.56,6.69,-0.05,0.04,0.11,104.81,78.44,27.00,0.69,2.44,0.31,6,7
1771525330.988385,208623,0.26,0.09,0.03,-109.50,-81.50,61.88,-1.69,-3.06,-0.56,-0.05,0.02,0.07,104.81,78.37,26.87,-1.31,0.13,-0.31,5,7
1771525331.180002,208814,0.24,-0.04,0.06,-108.31,-81.62,62.19,1.25,0.69,-0.69,-0.06,0.00,0.04,105.00,78.37,26.94,0.00,-0.62,0.13,5,7
1771525331.371062,209006,0.32,-0.11,-0.13,-110.06,-81.44,62.63,3.25,1.12,0.37,-0.07,0.00,0.15,105.25,78.37,26.81,0.81,0.37,-0.50,5,7
1771525331.562476,209196,0.39,-0.10,-0.06,-110.94,-81.50,62.88,-1.50,-1.25,-0.19,-0.08,-0.05,0.04,105.94,78.31,26.62,-1.25,-0.94,0.06,6,7
1771525331.751591,209386,0.16,0.07,0.17,-104.62,-81.50,62.44,4.62,-1.87,1.50,-0.10,0.01,0.01,105.50,78.56,27.12,-1.12,0.62,-0.37,7,8
1771525331.941844,209576,0.28,0.00,-0.02,-104.69,-81.56,62.88,0.44,0.62,0.00,-0.07,-0.01,0.08,105.25,78.50,27.25,1.81,-3.25,1.19,7,8
1771525332.133535,209768,0.28,-0.03,-0.01,-104.75,-81.75,63.00,-0.81,-0.06,-0.81,-0.07,0.00,0.15,105.69,78.44,27.12,0.31,-1.12,0.37,6,7
1771525332.324275,209959,0.20,0.06,-0.14,-104.62,-81.81,63.00,-2.94,0.37,-0.25,-0.10,-0.04,0.10,107.44,78.12,26.62,2.31,-3.00,1.69,6,7
1771525332.515459,210150,0.26,-0.03,0.08,-102.50,-82.06,63.00,0.06,-3.50,-0.37,-0.09,-0.09,0.08,107.62,77.94,26.25,-0.44,1.62,0.25,6,6
1771525332.704963,210339,0.20,-0.13,0.03,-100.44,-82.19,63.38,0.31,1.31,-0.69,-0.05,-0.03,0.12,107.62,77.94,26.31,0.25,-0.94,0.00,5,7
1771525332.895103,210529,0.25,-0.02,0.02,-101.62,-82.19,63.31,-1.69,-1.06,0.94,-0.05,0.00,0.07,108.69,77.81,26.19,0.06,-1.12,-0.25,5,6
1771525333.087463,210721,0.36,-0.14,-0.04,-100.81,-82.12,63.13,-1.25,-1.94,-0.13,-0.08,-0.01,0.12,108.94,77.87,26.25,-0.19,0.50,-0.31,5,6
1771525333.278172,210912,0.22,-0.03,0.03,-98.94,-82.19,63.13,2.12,-0.44,-0.81,-0.06,-0.01,0.14,108.19,77.94,26.37,-0.06,-0.06,-0.50,5,7
1771525333.468950,211103,0.51,-0.55,-0.17,-96.50,-82.19,62.94,-12.44,-9.88,1.81,-0.05,0.00,0.11,108.00,78.12,26.50,1.06,1.50,-1.12,5,8
1771525333.658478,211293,0.09,0.13,0.25,-83.94,-82.37,60.19,-6.87,4.56,2.62,-0.10,-0.01,0.08,107.44,78.50,26.62,2.00,-1.12,-2.69,5,8
1771525333.848406,211483,0.33,0.65,-0.07,-95.56,-81.31,59.44,15.13,10.31,6.44,-0.11,-0.03,0.02,109.25,78.44,26.50,1.31,-2.25,-0.25,5,9
1771525334.040025,211674,0.44,-0.41,-0.16,-105.81,-80.56,62.44,5.37,2.00,-2.06,-0.05,-0.02,0.01,108.81,78.50,27.00,-1.62,-2.37,3.25,5,9
1771525334.231288,211866,0.12,-0.10,0.07,-103.50,-81.19,62.75,0.75,-6.00,-2.06,-0.07,-0.07,0.12,107.87,78.37,27.00,-1.12,0.37,-0.31,4,9
1771525334.422209,212057,0.27,-0.07,0.03,-101.75,-81.44,63.19,-0.31,0.06,0.56,-0.07,0.00,0.10,107.56,78.37,27.12,0.62,-0.25,-0.25,4,8
1771525334.611911,212246,0.45,-0.31,-0.11,-101.19,-81.37,62.88,-3.69,-2.94,1.19,-0.10,0.00,0.09,107.00,78.50,27.19,1.37,1.87,-1.37,4,7
1771525334.802123,212436,0.07,0.63,0.14,-94.87,-81.81,60.38,-9.94,5.12,-1.75,-0.11,-0.06,0.07,106.50,78.62,27.19,-0.13,-1.00,-0.44,4,7
1771525334.993917,212628,0.35,-0.50,-0.10,-107.94,-79.87,64.37,40.00,5.94,6.87,-0.07,0.07,0.12,107.00,78.69,27.44,-0.81,-1.12,0.56,4,7
1771525335.184928,212819,0.17,-0.10,-0.05,-111.19,-80.44,66.94,-4.50,-2.87,-0.69,-0.07,-0.03,0.15,107.06,78.56,27.31,-0.25,0.50,0.75,4,7
1771525335.375836,213010,0.31,-0.09,0.02,-108.87,-80.81,66.19,-6.69,-2.50,-1.69,-0.07,-0.03,0.10,106.94,78.44,27.25,0.88,1.06,0.06,5,8
1771525335.565292,213200,0.28,-0.04,-0.04,-106.31,-81.06,65.50,-2.00,0.50,0.56,-0.08,-0.01,0.08,106.87,78.44,27.12,0.62,-0.81,-0.25,4,8
1771525335.755404,213390,0.20,-0.02,0.00,-105.62,-80.94,65.19,-1.37,-1.06,0.69,-0.07,0.00,0.16,106.94,78.44,27.12,0.13,-0.44,-0.13,5,9
1771525335.947261,213581,0.35,-0.11,-0.05,-103.94,-81.00,64.75,-3.12,-3.06,-0.19,-0.06,-0.03,0.13,107.00,78.44,27.12,-1.00,0.44,-0.50,5,9
1771525336.138059,213772,0.10,0.12,0.09,-94.81,-81.69,62.75,-19.62,-0.50,-3.19,-0.09,-0.06,0.14,106.87,78.50,27.19,1.31,0.06,-0.50,6,9
1771525336.328852,213963,0.19,-0.01,0.07,-94.75,-81.69,61.56,1.69,1.81,0.81,-0.07,0.01,0.14,107.06,78.56,27.12,1.44,-1.94,0.37,6,9
1771525336.518350,214153,0.27,0.30,-0.02,-100.37,-81.44,61.88,10.25,7.12,1.94,-0.03,0.00,0.15,107.62,78.44,26.87,-0.88,-0.94,0.69,6,9
1771525336.708649,214343,0.24,-0.35,0.04,-107.75,-80.44,64.19,7.75,-2.62,-0.88,-0.05,0.08,0.15,108.06,78.44,27.00,-0.88,0.25,0.56,5,8
1771525336.900125,214534,0.31,-0.10,-0.03,-107.62,-80.75,64.31,-2.50,-0.94,-1.06,-0.08,-0.04,0.09,108.25,78.37,26.94,-0.94,1.87,-0.94,5,8
1771525337.091538,214726,0.18,-0.03,0.02,-105.06,-80.87,63.88,-1.56,-0.81,0.19,-0.05,0.01,0.17,108.06,78.50,27.12,-0.75,0.56,-0.56,4,7
1771525337.282556,214917,0.29,-0.01,-0.03,-104.75,-80.87,63.56,-1.94,-0.56,0.31,-0.08,0.00,0.12,108.12,78.50,27.12,-0.31,-0.62,-0.19,4,7
1771525337.471810,215106,0.22,0.06,0.00,-102.25,-81.00,63.19,-2.44,-1.62,-0.88,-0.08,0.00,0.09,108.12,78.50,27.12,-0.13,0.19,0.37,4,6
1771525337.662193,215296,0.26,-0.09,0.08,-101.25,-81.12,63.44,1.06,-0.81,-0.13,-0.06,-0.03,0.19,108.37,78.44,27.12,-0.62,-0.37,-0.37,3,6
1771525337.854135,215488,0.25,0.08,-0.04,-101.81,-81.19,63.38,-5.50,-2.87,-2.12,-0.11,-0.05,0.05,108.19,78.44,27.12,-0.06,-2.81,-0.06,4,6
1771525338.044514,215679,0.18,0.02,0.01,-100.19,-81.25,63.44,1.50,2.81,0.88,-0.10,-0.01,0.10,108.31,78.44,27.25,1.00,-2.50,0.13,4,7
1771525338.235735,215870,0.43,-0.06,-0.01,-104.44,-81.19,63.88,1.94,5.56,1.75,-0.06,-0.04,0.18,108.50,78.44,27.19,0.56,-1.12,0.00,4,7
1771525338.426374,216061,0.28,-0.11,-0.04,-107.00,-81.06,63.81,-0.13,1.00,-0.13,-0.05,0.02,0.13,108.87,78.37,27.19,0.06,-0.62,0.19,4,7
1771525338.616456,216251,0.25,-0.01,-0.05,-107.25,-81.00,63.69,-1.31,0.50,0.13,-0.09,0.01,0.13,108.87,78.37,27.25,0.06,0.00,-0.25,4,7
1771525338.807952,216442,0.44,-0.43,-0.04,-105.75,-81.06,63.44,-2.50,-3.00,0.56,-0.09,-0.05,0.10,108.69,78.44,27.31,0.00,0.81,-1.06,5,7
1771525338.998423,216633,0.12,0.36,0.20,-91.56,-81.62,59.88,-23.37,-0.69,-1.87,-0.05,0.05,0.15,107.75,78.62,27.50,-0.31,0.31,0.06,5,7
1771525339.189313,216824,0.32,-0.01,-0.07,-92.69,-81.50,58.69,4.06,1.94,-2.12,-0.04,0.02,0.17,107.56,78.62,27.50,-0.75,0.25,0.31,5,7
1771525339.378733,217013,0.23,-0.21,0.05,-94.19,-81.75,59.94,7.31,-1.06,-1.50,-0.07,0.03,0.15,107.06,78.62,27.56,0.13,-1.06,0.69,5,7
1771525339.568850,217204,-0.07,-0.07,0.13,-101.62,-81.19,61.75,21.87,10.31,4.00,-0.01,0.01,0.18,107.56,78.50,27.31,-3.50,4.06,-0.69,5,6
1771525339.759724,217394,0.44,-0.14,-0.11,-111.94,-80.87,63.00,-5.12,-0.50,-2.06,-0.04,0.00,0.14,106.75,78.56,27.56,-0.25,2.31,-0.13,5,6
1771525339.951020,217586,0.27,-0.03,-0.08,-110.06,-81.06,62.81,0.06,0.94,-0.81,-0.09,0.00,0.07,106.37,78.56,27.50,0.13,-0.75,-0.31,5,7
1771525340.142645,217777,0.28,-0.03,-0.05,-107.87,-81.06,62.69,-1.62,-3.87,1.50,-0.09,0.00,0.12,106.50,78.56,27.50,-0.19,-0.37,-0.44,5,7
1771525340.332053,217967,0.32,-0.06,0.03,-99.25,-81.12,61.69,-8.38,-7.00,0.13,-0.07,0.00,0.04,106.56,78.56,27.50,0.56,-0.50,0.00,5,8
1771525340.522442,218157,0.22,-0.08,0.05,-83.19,-81.62,59.56,-30.06,-16.06,-6.62,-0.03,0.06,0.14,106.12,78.56,27.50,-1.00,1.87,0.69,5,9
1771525340.713886,218348,0.26,0.17,0.10,-71.50,-82.62,57.25,0.94,3.19,-5.62,-0.06,0.01,0.06,105.50,78.50,27.56,-0.62,1.12,-0.31,5,9
1771525340.905371,218540,0.23,-0.15,-0.07,-6.44,-83.25,59.06,6.00,2.81,-1.44,-0.06,0.00,0.08,105.19,78.50,27.69,-0.44,0.81,-0.56,5,8
1771525341.096439,218731,0.19,-0.01,-0.05,-6.19,-83.62,60.00,3.12,1.31,-0.19,-0.08,0.04,0.01,105.31,78.50,27.81,-0.75,-1.69,0.44,5,8
1771525341.286998,218921,0.21,-0.24,0.00,-6.12,-83.69,60.63,-1.12,-1.19,1.37,-0.01,-0.05,0.07,105.69,78.50,27.56,-0.81,1.19,0.88,4,7
1771525341.476629,219111,0.28,-0.07,-0.01,-6.44,-83.37,60.31,5.19,1.56,1.50,-0.08,-0.17,-0.09,105.00,78.56,27.81,2.06,-0.81,-0.81,4,7
1771525341.668051,219303,0.29,0.07,-0.04,-6.50,-83.31,60.38,-1.56,2.44,1.37,-0.09,0.07,0.12,105.12,78.62,27.75,0.69,0.75,-0.56,4,8
1771525341.859225,219494,0.24,-0.03,-0.09,-6.56,-83.31,60.06,-1.62,0.37,0.37,-0.10,0.06,0.06,104.94,78.69,27.62,-1.25,-0.50,-0.31,4,8
1771525342.049671,219685,0.67,-0.32,0.02,-94.50,-81.94,62.25,46.75,5.06,13.31,-0.04,0.09,0.07,104.81,78.75,27.75,-1.56,1.44,0.25,4,8
1771525342.239736,219874,0.19,-0.29,-0.03,-92.37,-81.81,63.50,-32.94,-12.56,-2.69,-0.04,-0.03,0.19,104.00,78.75,27.81,1.25,0.44,0.19,4,8
1771525342.429263,220064,0.05,0.92,0.19,-85.00,-82.12,59.63,10.88,7.94,2.25,-0.03,0.00,0.17,103.81,78.62,27.69,1.56,-3.56,0.75,5,9
1771525342.621457,220256,0.37,-0.66,-0.10,-106.94,-80.69,64.87,14.69,6.44,0.31,-0.01,0.06,0.16,104.12,78.75,27.81,-2.00,0.56,0.50,4,9
1771525342.812464,220447,0.29,-0.23,-0.14,-107.25,-80.56,64.37,-9.44,-3.69,0.13,-0.01,0.03,0.15,104.56,78.75,27.75,0.31,-1.87,0.62,4,9
1771525343.003652,220638,0.33,-0.40,-0.02,-96.44,-81.12,61.69,-34.44,-15.81,-4.94,0.03,-0.02,0.30,105.75,78.75,27.75,-1.31,2.62,0.06,4,8
1771525343.193012,220828,0.56,-0.19,-0.03,-105.50,-81.50,61.25,19.00,11.13,0.44,-0.05,-0.01,0.07,106.37,78.75,28.06,-0.88,1.75,0.19,4,9
1771525343.383344,221018,0.33,-0.09,-0.09,-111.19,-81.50,62.56,-1.81,-1.00,1.75,-0.07,0.01,0.05,106.37,78.75,28.06,-0.75,-3.56,1.25,3,8
1771525343.574984,221209,0.54,-0.19,-0.05,-105.31,-81.44,61.63,-3.25,-7.19,-0.31,-0.07,-0.05,0.02,106.31,78.69,28.12,-1.00,0.25,0.25,3,7
1771525343.766020,221401,-0.03,0.42,0.29,-84.19,-82.06,59.25,-19.87,-7.19,-4.62,-0.07,0.08,0.13,105.37,78.81,28.19,1.56,-1.37,-0.56,4,7
1771525343.956733,221592,0.25,0.09,0.08,-89.69,-82.25,59.19,13.00,11.00,1.50,-0.09,-0.06,0.03,105.44,78.87,28.06,1.31,1.69,-2.25,3,7
1771525344.146424,221781,0.43,-0.02,-0.05,-103.31,-80.81,61.06,23.94,15.25,10.19,-0.07,0.19,-0.03,105.12,79.06,28.75,-1.06,2.12,-0.37,3,7
1771525344.336678,221971,0.38,0.38,-0.11,-104.87,-80.25,61.44,-0.13,-2.56,-2.37,-0.10,-0.06,0.01,104.25,78.94,28.94,1.12,1.37,2.62,4,5
1771525344.527443,222162,0.22,-0.61,0.04,-101.44,-81.44,63.25,-1.75,-6.75,-2.94,-0.09,-0.14,-0.06,101.44,78.75,28.25,1.50,-3.69,0.31,5,6
1771525344.718750,222354,-0.21,0.37,0.27,-82.50,-81.87,60.69,-24.62,-9.38,-2.56,-0.03,0.11,0.11,99.75,79.00,28.25,1.19,1.31,0.06,5,6
1771525344.910348,222545,0.27,0.28,0.00,-82.19,-81.81,58.31,-0.31,4.25,-1.56,-0.08,0.00,0.13,99.69,78.94,28.31,-1.44,1.50,0.06,4,6
1771525345.100021,222735,0.72,-0.45,-0.12,-101.44,-80.81,61.38,48.88,17.87,6.12,-0.12,0.04,0.00,100.50,78.94,28.44,0.75,-1.12,-0.81,5,5
1771525345.290376,222925,0.26,0.01,-0.10,-110.06,-80.69,64.81,-5.37,2.62,-0.69,-0.19,-0.09,-0.07,101.12,78.81,28.50,0.06,0.13,0.19,4,5
1771525345.481945,223117,0.26,-0.07,0.00,-110.94,-80.75,63.88,-7.00,-1.56,1.00,-0.14,-0.06,0.08,100.69,78.81,28.19,0.44,0.69,0.62,4,5
1771525345.673016,223307,0.41,-0.38,-0.15,-103.75,-80.87,62.25,-12.38,-8.75,2.87,-0.08,-0.05,0.11,100.56,78.94,28.25,2.50,-2.62,0.00,4,6
1771525345.864015,223499,0.21,0.45,0.17,-91.50,-80.94,59.44,1.25,3.44,0.81,-0.13,-0.06,-0.08,101.19,78.94,28.12,-1.31,0.13,-1.31,5,6
1771525346.053432,223688,0.42,-0.04,0.00,-98.12,-80.69,61.06,12.94,4.62,2.94,-0.07,0.00,-0.13,101.75,79.12,28.50,0.13,2.19,-0.25,5,6
1771525346.243877,223878,0.26,-0.09,-0.12,-101.56,-80.44,62.63,4.50,3.19,-1.12,-0.09,-0.01,0.07,101.25,79.00,28.31,-0.69,-1.94,1.62,5,7
1771525346.435729,224070,0.28,-0.15,-0.02,-102.87,-80.75,63.13,-1.00,-3.56,-0.56,-0.12,-0.07,0.04,100.75,78.94,28.25,-0.94,0.56,-0.25,3,7
1771525346.626503,224261,-0.12,0.08,0.16,-89.62,-81.06,61.13,-22.62,-10.63,-3.12,-0.10,0.00,0.07,100.00,79.00,28.31,0.62,-0.81,0.06,3,6
1771525346.817444,224452,0.23,0.12,0.09,-89.87,-81.19,59.38,4.94,4.69,1.44,-0.11,0.00,0.02,100.25,79.00,28.31,-0.62,-1.25,-0.44,3,6
1771525347.007246,224642,0.21,0.16,-0.08,-94.94,-81.25,59.44,-0.37,3.50,-1.44,-0.09,0.02,0.08,99.87,79.00,28.50,-0.19,-0.37,0.06,4,7
1771525347.197212,224832,0.24,0.28,-0.05,-102.12,-81.31,60.50,12.88,7.06,-0.13,-0.12,-0.03,0.00,99.81,79.00,28.75,0.31,-0.69,-1.00,4,6
1771525347.388838,225024,0.22,-0.31,-0.02,-108.00,-80.81,63.06,1.06,-5.81,4.00,-0.05,0.00,0.07,100.56,79.00,28.69,-0.31,-1.12,0.00,3,7
1771525347.580161,225215,0.23,-0.05,0.12,-102.31,-80.69,62.31,-2.00,-3.87,1.56,-0.09,-0.03,0.05,100.37,79.00,28.62,-0.88,0.94,1.06,3,6
1771525347.771204,225406,0.17,-0.36,0.00,-93.19,-81.06,61.13,-21.69,-14.13,-3.00,-0.02,0.07,0.18,99.75,79.00,28.56,0.62,1.37,-0.37,3,6
1771525347.960652,225595,0.24,0.19,0.01,-86.25,-81.50,57.94,-7.62,3.37,-3.69,-0.03,0.00,0.03,100.25,78.94,28.44,1.25,-2.37,-0.69,3,5
1771525348.150542,225785,0.40,0.04,0.02,-90.75,-81.50,58.81,14.44,1.50,2.19,0.00,0.00,0.05,101.81,79.06,28.69,-2.31,-1.12,-2.19,3,6
1771525348.341378,225976,0.35,-0.13,-0.03,-95.62,-80.25,60.75,10.25,0.62,7.56,-0.03,0.23,0.01,103.44,79.31,29.31,-2.62,4.06,-0.06,3,7
1771525348.532184,226167,0.28,-0.28,0.04,-95.19,-80.31,60.94,-2.12,-5.37,-1.75,-0.09,-0.10,0.23,103.81,79.12,28.81,2.19,-0.88,0.88,5,7
1771525348.723137,226358,0.29,0.02,-0.04,-93.12,-80.50,60.75,-1.37,0.06,1.31,-0.11,0.07,-0.10,104.56,79.00,28.50,-1.56,0.75,-1.31,5,8
1771525348.913431,226548,-0.04,0.11,0.20,-87.31,-80.25,59.69,-13.44,-7.06,-1.12,-0.08,0.00,0.12,103.37,79.19,28.69,-0.62,1.37,1.69,5,8
1771525349.103859,226739,0.40,-0.09,-0.07,-93.50,-80.69,60.31,13.69,6.56,-4.44,-0.04,-0.02,0.05,102.50,79.12,28.75,0.13,0.69,0.19,5,9
1771525349.295968,226931,0.38,-0.46,-0.09,-93.31,-81.12,60.94,-31.00,-10.44,-3.00,-0.03,-0.02,0.07,101.69,79.06,28.87,1.25,1.94,0.31,5,8
1771525349.486670,227122,0.14,0.20,0.18,-84.25,-81.69,58.00,2.25,0.88,-1.37,-0.03,0.00,0.06,100.62,79.06,28.75,-0.25,2.06,-0.62,5,9
1771525349.678189,227313,0.18,-0.07,-0.04,-97.50,-80.56,61.06,43.31,15.50,10.25,-0.12,0.04,-0.17,100.81,79.12,28.87,-0.88,-5.31,0.44,5,8
1771525349.867967,227502,0.29,-0.07,-0.12,-103.69,-80.00,63.38,-7.06,-3.50,-2.62,-0.06,-0.08,0.18,100.94,79.06,28.81,-0.56,-0.50,1.00,4,9
1771525350.057831,227693,0.32,-0.30,0.01,-97.81,-80.62,63.06,-4.06,-9.00,-1.00,-0.08,0.05,0.05,100.87,79.00,28.75,0.25,1.25,0.13,4,8
1771525350.249476,227884,-0.03,0.03,0.12,-85.12,-81.12,60.81,-25.12,-6.00,-5.62,-0.10,0.01,0.10,99.31,79.06,28.69,-0.50,0.88,0.94,4,8
1771525350.440437,228075,0.52,-0.01,-0.03,-92.75,-81.50,60.88,34.31,16.69,0.25,-0.14,0.09,-0.06,99.44,79.00,28.69,-0.31,0.56,0.31,2,8
1771525350.631731,228266,0.18,-0.08,-0.06,-101.31,-81.62,63.69,-6.25,-3.50,-0.13,-0.06,0.00,0.21,98.44,78.94,28.50,1.31,0.25,0.25,3,8
1771525350.821515,228456,0.31,-0.04,-0.03,-100.00,-81.56,63.00,-1.19,-1.50,-0.56,-0.11,-0.03,-0.02,99.00,78.87,28.25,0.81,-1.94,0.94,3,7
1771525351.011335,228646,0.13,-0.02,0.09,-96.69,-81.50,62.56,-1.00,-1.19,1.19,-0.09,0.00,0.02,97.87,79.06,28.37,0.50,-0.13,-1.25,3,7
1771525351.202649,228837,0.31,0.03,-0.12,-97.00,-81.19,61.75,-2.50,-0.94,1.37,-0.10,-0.02,0.08,98.75,79.06,28.37,0.25,-1.75,-0.37,3,7
1771525351.394178,229029,0.27,-0.13,0.04,-88.94,-81.12,60.13,-24.94,-12.94,-1.75,-0.08,0.00,0.11,99.31,79.12,28.37,-0.50,0.00,0.00,3,6
1771525351.585198,229220,0.17,0.16,0.08,-80.50,-81.37,57.38,-5.56,1.12,-0.25,-0.06,-0.02,0.13,100.19,79.12,28.37,-0.44,-2.06,-0.88,3,7
1771525351.774538,229409,0.22,0.21,-0.01,-84.25,-81.50,57.31,4.87,2.81,1.25,-0.09,0.04,-0.11,100.25,79.25,28.69,0.06,-2.31,-0.44,4,6
1771525351.964879,229600,0.58,-0.36,-0.07,-96.25,-80.44,60.06,25.37,6.56,8.94,-0.11,0.04,0.01,100.62,79.25,28.87,-1.56,-1.00,0.44,4,7
1771525352.156742,229791,0.31,0.03,-0.11,-98.37,-80.37,60.81,-2.50,-1.75,-0.13,-0.13,-0.04,0.08,100.25,79.19,28.69,0.94,-0.06,0.94,5,6
1771525352.347630,229982,0.29,-0.21,0.00,-96.94,-80.56,61.13,-0.31,-1.81,-0.88,-0.12,-0.04,0.11,99.69,79.12,28.56,-0.06,1.56,0.25,5,7
1771525352.538933,230173,0.24,-0.14,-0.03,-93.87,-80.87,60.69,-6.56,-3.06,-3.19,-0.05,-0.02,0.08,98.87,79.12,28.62,-0.44,-1.44,1.06,5,7
1771525352.728332,230363,0.28,-0.11,-0.03,-89.94,-81.37,59.25,-12.50,0.31,-0.88,-0.09,-0.03,0.11,99.12,79.12,28.56,0.13,0.50,-0.75,6,7
1771525352.918749,230553,0.25,0.15,-0.10,-87.44,-81.69,57.56,-6.50,0.69,-4.25,-0.04,-0.01,0.19,99.31,79.12,28.56,-0.62,-0.25,-0.37,6,7
1771525353.109667,230744,0.15,0.02,0.14,-85.25,-82.12,58.06,2.00,-3.00,-1.44,-0.05,0.01,0.05,99.37,79.19,28.62,-1.81,-0.37,-0.37,7,8
1771525353.300880,230936,0.27,-0.06,-0.06,-85.62,-82.25,58.81,1.94,0.37,-0.31,-0.07,-0.04,0.03,99.37,79.12,29.00,-2.19,2.06,1.69,7,8
1771525353.491913,231127,0.08,0.01,0.10,-87.12,-82.37,59.88,14.25,1.19,1.50,-0.11,0.01,0.18,98.31,79.00,29.06,-3.81,1.00,0.44,7,8
1771525353.681853,231317,0.42,-0.27,-0.15,-95.44,-82.00,61.56,3.50,0.75,-5.12,-0.17,-0.16,-0.27,99.06,78.81,29.25,4.81,-4.25,1.44,6,8
1771525353.871923,231507,0.16,-0.16,0.04,-90.31,-82.56,61.88,-2.69,2.19,0.62,-0.07,-0.09,0.02,98.50,78.75,28.75,1.69,-2.19,-2.25,6,8
1771525354.063491,231698,0.06,0.18,0.01,-85.37,-81.94,59.63,-15.63,-3.31,5.56,-0.10,-0.01,0.14,98.19,79.12,28.81,1.56,0.62,-1.37,5,8
1771525354.255025,231890,0.17,0.29,0.00,-80.56,-81.25,56.81,-10.94,-0.44,-2.69,-0.11,0.00,0.05,98.25,79.25,28.75,-0.75,-0.44,0.25,6,8
1771525354.445763,232081,0.06,-0.05,0.09,-78.37,-81.69,56.81,3.44,1.06,-5.37,-0.09,-0.08,0.06,97.87,79.25,28.62,2.81,-1.94,-0.19,6,8
1771525354.635161,232270,0.18,-0.04,0.12,-80.81,-82.25,57.81,3.87,0.44,0.56,-0.07,0.07,-0.03,98.19,79.25,28.75,-1.44,0.37,-0.37,6,9
1771525354.825097,232460,0.08,0.39,0.11,-84.81,-81.94,58.06,10.75,7.69,3.81,-0.05,0.07,0.08,98.94,79.19,29.25,-5.37,-3.00,0.62,6,9
1771525355.017147,232652,0.24,-0.23,-0.02,-95.75,-81.50,60.06,5.44,-1.81,-2.87,-0.11,-0.05,0.06,98.87,78.94,29.31,-0.44,-0.62,1.12,6,9
1771525355.208171,232843,0.38,-0.03,-0.15,-95.87,-81.94,60.75,0.13,2.37,-1.50,-0.05,-0.01,-0.04,99.69,78.87,29.31,3.31,-1.12,-1.06,5,9
1771525355.399516,233034,0.41,-0.23,-0.11,-89.25,-82.25,60.50,-12.31,-10.63,5.25,-0.16,-0.04,0.15,99.25,78.81,28.62,-0.94,-1.19,-1.25,5,8
1771525355.588591,233224,0.07,0.37,0.11,-75.94,-81.81,57.81,-9.13,4.37,0.19,-0.10,-0.02,-0.06,99.12,79.00,28.75,0.19,-0.81,-0.13,5,8
1771525355.778766,233414,0.24,0.00,-0.04,-81.00,-82.00,57.56,2.81,2.87,-1.00,-0.11,-0.10,0.06,99.25,79.00,28.87,-1.19,0.00,-1.00,5,8
1771525355.969440,233604,0.20,0.03,0.07,-84.12,-82.31,58.56,5.62,3.56,-0.56,-0.08,0.03,-0.07,99.50,79.06,29.25,-2.69,-1.62,-0.37,6,8
1771525356.159535,233795,0.40,0.03,-0.19,-92.69,-81.56,59.63,8.13,2.62,1.00,-0.08,0.08,0.07,99.87,79.06,29.62,-2.31,-1.31,0.50,6,7
1771525356.350956,233986,0.21,-0.24,-0.03,-91.31,-81.94,60.38,-0.06,-3.12,-4.75,-0.15,-0.11,0.00,100.12,78.81,29.25,2.56,1.25,0.44,6,7
1771525356.541646,234176,0.02,-0.04,0.19,-83.19,-82.50,60.25,-8.75,-4.12,-0.56,-0.12,0.04,0.16,98.81,78.81,28.94,-4.12,-0.94,-0.69,7,7
1771525356.731785,234367,0.05,0.00,-0.01,-80.31,-81.81,58.63,-10.00,-7.31,2.19,-0.01,0.01,0.22,98.56,79.00,29.06,-0.88,4.44,1.19,7,7
1771525356.922510,234558,0.33,0.00,0.02,-80.81,-82.19,57.50,2.87,4.12,-5.50,-0.10,-0.01,0.03,97.56,78.87,29.12,0.75,1.00,0.69,7,8
1771525357.113956,234749,0.19,0.22,-0.08,-84.87,-82.50,58.88,15.50,2.94,0.31,-0.08,-0.04,0.09,96.62,78.81,29.00,-0.31,0.13,0.00,8,8
1771525357.305779,234941,0.29,-0.20,-0.11,-90.00,-82.56,61.31,0.50,-2.75,-0.06,-0.06,0.02,0.07,96.81,78.75,29.06,-0.06,-0.19,0.06,7,8
1771525357.495558,235130,0.14,0.05,0.01,-85.87,-82.50,60.75,-4.56,-2.44,1.94,-0.03,-0.03,0.09,96.62,78.75,28.94,-0.88,1.56,-0.19,7,8
1771525357.685736,235321,0.29,-0.06,-0.11,-83.87,-82.31,60.25,-2.69,-0.75,0.50,-0.02,0.02,0.06,96.94,78.75,28.94,0.62,-0.13,0.19,7,7
1771525357.876899,235512,0.28,-0.03,-0.04,-81.25,-82.25,59.81,-2.69,-0.06,0.69,-0.09,0.01,0.06,97.12,78.75,28.94,-0.25,1.00,0.25,6,8
1771525358.068508,235703,0.17,0.00,0.05,-78.00,-82.12,59.06,-4.94,-0.50,-0.94,-0.11,-0.05,0.11,96.94,78.75,28.94,0.19,-0.62,0.13,6,7
1771525358.259991,235895,0.33,-0.18,-0.12,-75.62,-82.06,58.69,-4.62,-4.31,1.87,-0.01,0.00,0.20,97.19,78.75,29.00,-1.19,-0.50,-0.56,6,8
1771525358.449371,236084,0.18,0.03,0.11,-69.12,-81.87,57.06,-8.94,0.94,-1.94,-0.02,-0.05,0.11,98.94,78.75,29.06,-1.44,-2.19,-0.88,6,8
1771525358.639348,236274,0.35,0.10,0.01,-68.94,-81.75,56.00,-2.56,-2.00,-0.06,-0.03,0.00,0.12,100.69,78.75,29.25,-0.75,-1.56,0.00,6,8
1771525358.830831,236466,0.25,0.10,0.01,-66.69,-81.62,55.69,-1.37,-1.62,0.50,-0.11,-0.08,0.25,100.69,78.69,29.06,-0.81,1.56,0.62,5,7
1771525359.022460,236657,0.18,-0.16,0.00,-66.25,-81.87,56.13,4.25,2.94,-0.44,-0.15,0.00,-0.04,100.37,78.69,29.06,-0.44,-0.62,-0.50,5,7
1771525359.213396,236848,-0.19,0.52,0.16,-74.69,-81.75,56.63,17.75,12.19,5.12,-0.21,-0.04,-0.15,102.12,78.50,29.00,-2.37,-9.63,2.06,5,7
1771525359.402680,237038,0.40,-0.33,-0.25,-92.50,-81.75,58.81,0.75,-0.69,-4.00,-0.03,-0.01,0.27,103.19,78.37,28.87,0.00,3.00,0.00,5,7
1771525359.593450,237228,0.33,0.00,-0.01,-86.69,-81.81,58.38,-5.87,-4.50,-0.44,-0.04,-0.02,0.12,101.44,78.37,28.75,-0.19,3.75,-1.31,5,7
1771525359.784834,237420,0.29,0.10,0.18,-83.06,-81.94,58.13,-1.44,0.19,-2.50,-0.29,0.06,-0.23,100.44,78.44,28.69,9.44,-11.19,3.12,4,6
1771525359.975755,237611,0.20,0.03,-0.02,-85.06,-82.50,58.44,-2.56,-1.25,0.06,-0.02,0.00,0.29,97.62,78.44,28.69,-0.56,3.31,-0.37,5,7
1771525360.166880,237802,0.45,-0.04,-0.18,-89.12,-82.56,58.50,0.62,2.12,-1.12,-0.04,-0.04,0.03,97.44,78.44,28.81,-1.25,1.12,0.00,4,6
1771525360.356469,237991,0.19,-0.14,0.07,-87.62,-82.75,59.00,1.50,-1.12,-0.37,-0.07,0.00,0.05,97.62,78.44,28.87,0.25,-2.31,-1.06,3,6
1771525360.546919,238182,0.47,-0.54,-0.12,-76.94,-82.56,58.31,-15.63,-19.44,4.06,-0.03,0.03,0.30,96.94,78.69,28.75,2.00,-3.25,-1.31,4,6
1771525360.737867,238373,0.17,0.26,0.13,-69.31,-81.31,56.25,6.75,3.31,3.19,-0.05,0.12,0.01,101.06,78.81,28.19,6.62,-4.87,-1.75,4,7
1771525360.928916,238564,-0.06,0.35,0.03,-81.62,-81.37,56.63,6.31,13.13,1.44,-0.19,-0.04,-0.11,103.00,78.75,27.31,-3.69,0.50,0.62,4,8
1771525361.120507,238755,0.50,-0.22,-0.14,-97.50,-80.75,58.69,7.62,-2.25,-1.44,-0.13,-0.01,0.12,102.19,78.87,28.00,-6.12,4.94,-0.69,4,8
1771525361.310068,238945,0.30,-0.16,0.04,-91.94,-81.00,59.63,3.31,-8.81,-0.88,-0.09,0.14,0.10,97.50,79.19,28.94,1.37,-3.56,1.00,5,7
1771525361.500491,239135,0.28,-0.14,-0.07,-85.50,-81.25,59.63,-5.69,-3.94,-1.94,-0.15,0.00,-0.07,99.19,79.00,28.50,-1.37,-2.31,0.75,5,7
1771525361.691916,239327,-0.34,0.45,0.29,-68.00,-81.19,57.06,-23.62,-8.50,-4.44,-0.08,-0.06,-0.12,96.75,79.19,28.69,6.19,-11.50,1.75,5,8
1771525361.882328,239517,0.10,-0.05,0.11,-69.94,-81.50,56.50,6.56,6.06,0.69,-0.08,-0.03,-0.06,101.06,79.12,28.31,2.56,-2.94,-1.19,4,6
1771525362.073535,239709,0.22,0.50,0.04,-80.37,-80.94,57.19,20.37,8.50,8.50,-0.04,0.29,-0.01,103.44,79.12,28.44,-0.37,-2.00,0.25,5,7
1771525362.264016,239899,0.18,-0.01,-0.14,-89.62,-79.62,58.81,0.25,-6.56,-3.00,-0.13,-0.15,-0.10,106.69,78.69,28.94,1.50,-0.56,3.81,5,6
1771525362.454039,240089,0.30,-0.23,0.06,-83.00,-80.94,59.94,-1.06,-4.81,-5.87,-0.08,-0.14,0.19,101.12,78.37,28.87,1.62,6.31,-1.62,4,6
1771525362.645048,240280,-0.68,0.37,0.14,-70.81,-81.12,59.31,-21.00,-12.81,4.06,0.05,0.08,0.30,100.81,78.75,28.94,1.00,-3.44,-0.62,5,6
1771525362.836470,240472,0.38,0.07,-0.12,-86.19,-80.81,60.19,19.62,8.88,2.75,-0.08,0.01,0.06,102.44,78.87,29.00,-0.37,-0.25,-0.06,4,6
1771525363.027800,240663,0.24,-0.17,-0.02,-91.75,-80.87,61.94,-1.50,-0.62,-0.06,-0.10,-0.01,0.08,101.75,78.94,29.12,-0.94,0.94,0.50,4,6
1771525363.218263,240853,0.21,0.13,-0.07,-91.06,-80.62,61.44,0.25,1.31,0.13,-0.06,-0.01,0.10,100.56,78.81,29.12,-1.62,4.06,-1.25,5,7
1771525363.408118,241043,0.16,0.25,-0.03,-85.94,-80.50,60.50,-11.00,-9.31,2.81,-0.06,-0.02,0.13,100.06,78.75,29.62,1.75,3.44,-1.25,6,7
1771525363.598693,241234,0.04,0.26,0.12,-73.12,-80.75,57.81,-21.06,-1.50,-5.87,-0.07,-0.07,0.04,97.87,78.94,29.44,0.50,1.56,0.75,6,6
1771525363.789049,241424,0.21,0.08,0.12,-70.69,-80.69,57.06,6.06,1.06,2.87,0.03,0.07,0.04,97.69,79.06,29.37,1.19,-4.44,-0.06,6,6
1771525363.980833,241616,0.01,0.53,0.05,-79.50,-80.00,57.56,16.37,11.44,5.31,-0.08,-0.05,0.05,101.19,78.94,29.56,-2.56,-3.06,0.56,6,6
1771525364.170781,241806,0.40,-0.34,-0.13,-92.69,-79.50,60.56,1.50,-5.31,-4.44,-0.10,0.14,-0.24,104.19,78.81,29.50,1.81,2.00,0.62,7,7
1771525364.361407,241996,0.34,-0.32,0.01,-88.62,-80.19,61.00,-4.44,-3.31,-4.56,-0.06,-0.10,0.24,102.75,78.69,28.75,3.69,3.75,-3.00,7,7
1771525364.552477,242187,0.04,0.62,0.16,-75.12,-80.87,57.56,-28.12,-4.00,-3.87,-0.13,0.10,-0.09,102.87,79.00,29.31,-1.94,-2.31,-0.44,6,6
1771525364.742768,242378,0.20,-0.04,0.13,-73.19,-80.50,55.88,2.56,0.44,-0.19,-0.08,-0.01,0.03,100.87,79.12,29.25,-3.25,3.50,0.62,7,6
1771525364.934178,242570,0.06,0.04,0.02,-82.94,-80.31,57.94,36.75,16.37,7.44,-0.08,0.09,-0.11,100.62,79.06,29.81,-3.87,0.19,1.06,7,7
1771525365.124449,242760,0.19,0.00,-0.09,-90.31,-79.87,59.94,-5.00,-1.19,-3.56,-0.08,-0.03,0.06,98.75,78.81,29.81,3.06,2.19,2.56,7,7
1771525365.314864,242950,0.27,-0.35,-0.10,-88.25,-80.81,60.63,-1.44,-1.87,-5.37,-0.10,-0.02,0.09,98.19,78.62,29.31,3.44,1.50,-0.75,6,8
1771525365.505677,243141,0.17,0.15,0.07,-84.62,-81.00,60.13,-1.56,-0.31,3.69,-0.11,0.03,-0.07,99.25,78.87,29.12,-1.75,-0.13,-2.19,6,8
1771525365.696023,243331,0.45,0.15,-0.15,-83.31,-80.12,59.00,-4.19,-5.25,1.31,-0.01,0.06,0.21,100.31,79.00,29.19,1.94,0.44,-0.88,6,8
1771525365.888217,243523,-0.15,-0.09,0.19,-75.75,-79.94,58.00,-17.06,-5.87,-0.25,-0.07,-0.05,0.09,100.25,78.94,29.00,2.94,-3.37,0.62,6,8
1771525366.077633,243713,0.35,0.14,0.01,-75.44,-80.00,56.00,-2.56,3.44,1.62,-0.06,0.02,0.00,102.50,78.94,28.50,2.31,-3.81,0.13,6,7
1771525366.268038,243903,0.30,0.02,-0.02,-79.50,-80.00,56.00,2.44,5.00,0.44,-0.10,0.04,0.00,106.56,78.56,27.81,1.12,-7.94,2.19,5,7
1771525366.458905,244094,0.19,0.26,0.08,-85.94,-79.94,56.88,23.25,6.06,4.94,-0.09,-0.04,0.03,107.50,78.12,27.12,1.25,-0.94,1.75,6,7
1771525366.649559,244285,0.18,-0.34,-0.14,-94.25,-79.81,60.13,3.56,-0.19,-2.19,-0.13,0.01,-0.05,106.25,78.12,27.12,-4.12,3.19,0.75,5,8
1771525366.841289,244476,0.29,0.08,0.00,-91.25,-79.87,60.13,-3.31,-5.37,-0.88,-0.09,0.02,0.05,101.87,78.56,28.06,-0.56,5.94,-2.94,6,8
1771525367.031655,244667,0.12,-0.34,0.04,-79.25,-79.87,59.19,-19.19,-14.31,-1.19,-0.08,-0.02,0.18,100.12,78.94,28.37,1.75,-3.50,0.19,6,8
1771525367.221988,244857,0.36,0.25,0.07,-74.19,-80.62,55.81,-7.31,8.38,-3.37,-0.09,0.06,-0.10,101.69,78.94,28.50,-2.06,-0.44,-0.88,6,9
1771525367.412511,245048,0.11,0.06,0.12,-76.06,-80.62,56.25,5.12,-0.37,-1.62,-0.06,0.02,0.08,100.81,79.06,28.75,-0.19,2.37,-0.19,7,9
1771525367.602898,245238,0.30,0.14,-0.08,-82.94,-80.81,57.69,19.25,8.56,2.94,-0.05,0.07,-0.03,99.50,79.00,28.94,-1.31,0.81,0.81,7,9
1771525367.795214,245430,0.20,-0.26,-0.07,-90.69,-80.50,59.88,-0.69,-4.06,-0.25,-0.12,-0.02,0.08,98.31,78.87,29.06,-1.19,3.37,0.69,7,8
1771525367.984770,245620,0.15,-0.02,0.09,-88.25,-80.56,60.00,3.50,-1.12,0.56,-0.06,0.00,-0.05,97.25,78.87,28.94,3.44,1.00,0.19,7,9
1771525368.175541,245811,0.35,-0.27,-0.07,-89.25,-80.44,61.06,4.37,0.31,-2.25,-0.04,0.00,0.10,98.00,78.94,28.75,-0.06,-2.75,-2.06,7,8
1771525368.366052,246001,0.21,0.00,0.11,-85.44,-80.06,60.50,-7.56,-8.31,5.87,-0.09,-0.01,0.07,98.56,79.12,28.94,-1.06,4.44,-0.75,7,8
1771525368.557678,246193,0.27,0.06,-0.03,-81.19,-79.56,59.50,-0.50,0.69,0.25,-0.08,0.02,0.02,97.81,79.19,29.12,-0.25,-1.19,0.94,8,7
1771525368.748753,246384,0.26,0.00,0.00,-79.62,-79.81,59.63,-3.00,-2.69,-2.19,-0.06,0.01,0.12,97.50,79.00,28.94,-0.25,0.00,0.88,9,7
1771525368.939090,246574,0.23,-0.50,0.03,-72.31,-80.06,59.06,-25.06,-11.44,-3.44,-0.05,-0.03,0.08,98.31,78.87,28.56,4.25,-8.00,2.69,9,8
1771525369.129390,246765,0.27,0.14,0.06,-66.00,-80.12,55.88,-4.56,2.37,-0.06,-0.09,-0.07,-0.01,103.12,78.44,27.37,5.94,-4.81,0.75,9,8
1771525369.320619,246955,0.34,-0.04,-0.01,-69.44,-80.44,55.38,-1.37,3.56,-0.94,-0.07,-0.04,-0.02,105.87,78.19,26.69,-0.13,-2.06,-0.25,9,9
1771525369.510758,247147,0.12,0.04,0.08,-71.69,-80.50,55.38,1.19,3.87,1.12,0.00,0.09,0.12,105.19,78.31,26.94,0.62,0.44,0.88,9,8
1771525369.702294,247338,0.24,0.06,0.01,-75.25,-80.81,55.44,0.69,3.31,-1.37,-0.14,-0.15,0.07,105.19,78.00,26.62,-1.19,4.00,0.44,8,9
1771525369.892240,247528,0.25,0.13,0.02,-81.25,-81.19,57.81,29.94,5.25,3.69,-0.08,-0.07,0.06,102.75,78.19,27.37,-1.75,5.06,-1.31,8,8
1771525370.082597,247718,0.29,-0.81,-0.09,-94.50,-80.00,63.38,17.00,3.50,2.69,-0.02,0.09,0.19,100.31,78.62,28.12,-3.25,6.81,0.25,8,8
1771525370.274251,247909,0.35,-0.30,-0.01,-95.06,-80.50,63.25,-8.44,-6.75,1.69,-0.06,-0.04,0.18,99.12,78.56,28.19,0.81,-1.50,0.00,9,8
1771525370.464115,248099,0.39,-0.15,-0.08,-91.12,-80.37,61.19,-7.87,-1.62,2.50,-0.07,0.00,0.01,101.62,78.62,27.87,2.62,-3.37,-0.75,8,8
1771525370.655540,248291,0.16,0.13,0.18,-86.06,-79.75,59.06,-7.50,-3.25,2.19,-0.08,0.07,0.08,101.12,79.00,28.31,0.69,-1.19,-1.06,7,8
1771525370.846063,248481,0.32,0.11,-0.08,-84.06,-79.44,57.31,-15.81,-5.25,0.06,-0.05,-0.04,0.12,101.00,79.12,28.31,-0.37,2.19,-0.31,7,7
1771525371.036254,248672,0.38,0.08,-0.01,-81.94,-79.87,56.13,0.88,1.19,-2.12,-0.08,-0.03,0.19,101.19,79.19,28.69,-0.94,1.37,-0.88,6,7
1771525371.227611,248863,0.26,-0.11,-0.05,-84.44,-80.19,57.25,2.62,0.37,-0.06,-0.03,0.00,0.01,100.94,79.19,28.94,-0.75,0.13,-0.25,6,7
1771525371.417322,249053,0.43,-0.12,-0.11,-87.81,-79.69,58.13,4.69,-2.37,-0.31,0.00,0.06,0.07,101.50,79.19,29.25,-0.56,1.69,0.81,7,8
1771525371.608999,249244,0.39,-0.07,-0.02,-86.75,-79.87,58.69,3.62,-1.37,-1.81,-0.10,0.00,0.00,101.31,79.12,29.44,-0.13,0.50,0.00,7,8
1771525371.799297,249434,0.39,-0.15,-0.10,-84.06,-80.12,58.75,-2.87,-4.25,-3.44,-0.05,0.05,0.02,101.31,79.00,29.12,1.62,0.62,-0.50,8,8
1771525371.989741,249625,0.44,-0.02,-0.13,-80.25,-80.12,58.25,-3.94,0.31,-0.81,-0.06,-0.01,0.04,101.06,78.94,28.75,0.06,2.81,-0.94,7,7
1771525372.179900,249815,0.31,-0.17,-0.06,-73.87,-79.75,57.94,-5.50,-5.50,0.06,0.00,0.00,0.23,100.75,79.00,28.75,1.75,3.00,-0.37,6,7
1771525372.370374,250006,0.51,-0.17,-0.13,-76.50,-79.69,58.81,16.12,0.69,-1.75,-0.04,0.00,0.11,100.69,78.94,29.00,-0.88,0.81,-0.31,7,7
1771525372.562481,250198,0.24,-0.04,0.00,-75.37,-80.06,60.25,-2.56,-1.00,-1.44,-0.13,-0.08,0.03,99.87,78.87,28.81,1.75,0.19,-0.19,7,7
1771525372.752721,250388,0.25,0.00,0.00,-72.94,-79.94,59.88,-1.81,-1.75,-0.56,-0.13,-0.02,0.09,98.81,78.87,28.81,-0.06,0.06,0.06,7,7
1771525372.943092,250579,0.33,0.00,-0.08,-71.87,-79.81,59.75,-1.25,0.37,0.75,-0.06,-0.02,0.08,98.50,78.94,28.87,1.06,-0.19,-0.25,7,8
1771525373.133305,250769,0.21,-0.04,0.00,-69.06,-79.56,59.38,-4.69,-4.75,0.88,-0.09,-0.01,0.01,97.94,78.87,28.69,0.50,0.50,0.88,7,8
1771525373.325341,250960,0.27,-0.09,-0.13,-65.87,-79.44,58.75,-8.06,-2.25,-0.31,-0.04,0.01,0.06,99.56,78.81,28.69,0.50,-1.06,0.25,6,9
1771525373.516068,251151,0.12,0.05,0.08,-58.94,-79.06,57.31,-10.50,-6.81,-0.69,-0.11,0.01,0.16,99.06,78.75,28.50,-0.19,1.81,-1.06,6,9
1771525373.706573,251342,0.28,-0.11,-0.15,-57.13,-79.06,56.94,-0.50,0.44,-0.75,-0.08,0.00,0.07,98.75,78.81,28.56,0.25,0.25,0.00,6,9
1771525373.897035,251532,0.27,0.03,-0.02,-56.00,-79.00,56.63,-2.12,-1.12,-0.06,-0.07,0.00,0.10,98.81,78.81,28.56,-0.31,0.19,-0.19,6,8
1771525374.088084,251723,0.14,0.09,-0.13,-53.88,-79.50,55.56,-13.06,7.00,-5.25,-0.09,-0.02,-0.03,99.25,78.81,28.62,0.25,-0.44,0.75,6,8
1771525374.278557,251914,0.22,0.07,0.06,-54.75,-80.50,54.81,-0.25,2.31,-1.12,-0.11,0.01,0.19,99.44,78.69,28.50,0.81,0.75,0.62,5,9
1771525374.469295,252105,0.26,0.00,-0.10,-58.31,-81.00,55.63,9.13,3.12,0.00,-0.09,0.01,0.12,98.69,78.69,28.81,-3.25,0.19,0.31,5,8
1771525374.659555,252295,0.23,-0.08,-0.06,-62.63,-81.19,57.00,6.87,2.31,0.37,-0.07,-0.01,0.03,98.94,78.69,29.19,1.94,2.25,0.37,5,7
1771525374.850063,252485,0.21,-0.07,0.00,-63.31,-81.31,57.50,0.62,0.50,-1.19,-0.08,-0.01,0.03,99.56,78.50,28.75,0.88,-7.94,1.75,4,5
1771525375.040140,252676,0.15,0.03,0.00,-66.81,-81.44,58.06,7.25,4.31,2.00,-0.12,-0.08,0.01,104.31,78.06,27.81,3.19,-3.81,0.75,4,5
1771525375.230470,252866,0.39,-0.32,-0.07,-77.87,-80.87,60.00,18.69,1.06,2.50,-0.11,0.00,-0.07,106.25,77.81,27.31,1.81,-3.50,0.88,5,4
1771525375.422827,253058,0.25,0.00,0.00,-75.87,-80.81,60.56,-2.62,-3.37,0.25,-0.11,-0.09,0.02,105.19,77.81,27.19,0.50,1.56,-0.19,5,4
1771525375.613010,253249,0.25,-0.01,0.01,-73.75,-80.75,60.31,0.44,2.56,0.13,-0.13,-0.09,0.05,104.25,77.87,27.19,2.44,2.87,-1.62,5,5
1771525375.803771,253439,0.04,-0.06,0.13,-72.87,-80.37,59.63,-7.25,-0.37,2.75,-0.11,0.03,0.05,101.62,78.44,28.06,-0.62,1.06,-1.31,5,6
1771525375.995122,253631,0.29,-0.15,-0.14,-73.31,-80.06,58.19,-6.00,3.00,1.56,-0.07,-0.03,0.14,100.50,78.87,28.50,-1.12,0.44,0.31,5,5
1771525376.184523,253820,0.23,0.15,0.01,-68.25,-80.44,56.19,-14.75,1.94,-8.19,-0.08,-0.02,0.07,99.56,78.75,28.62,-0.62,0.50,0.06,5,5
1771525376.376406,254012,0.11,-0.10,-0.10,-67.31,-81.50,56.06,1.87,4.37,-1.62,-0.04,-0.01,0.00,100.44,78.62,28.31,3.62,-6.37,1.06,5,5
1771525376.566397,254202,0.33,0.04,0.00,-70.19,-81.62,56.19,1.69,0.13,4.06,-0.04,0.00,-0.15,105.62,78.12,27.44,2.87,-3.31,0.25,4,6
1771525376.757192,254393,0.42,-0.05,-0.02,-66.25,-80.50,56.50,4.31,-12.25,2.44,-0.02,-0.03,0.09,107.12,77.94,27.31,2.12,2.69,0.81,4,7
1771525376.947390,254583,0.31,-0.04,-0.10,-58.44,-79.94,56.94,0.13,-1.00,-1.06,-0.13,-0.12,0.07,105.37,77.94,27.25,0.81,3.94,-1.00,4,7
1771525377.137260,254773,0.09,-0.10,0.06,-54.75,-79.50,56.63,-6.62,-4.75,0.06,0.01,0.07,0.32,101.75,78.25,27.94,-1.87,5.50,-1.06,5,6
1771525377.330032,254965,0.33,-0.01,-0.18,-56.81,-80.31,56.19,5.25,7.31,-1.12,-0.07,-0.13,0.00,100.19,78.56,28.31,-1.81,-1.19,0.00,6,5
1771525377.520321,255156,0.26,-0.08,0.02,-63.00,-80.37,57.38,10.88,-1.25,3.31,-0.02,0.11,0.07,99.81,78.62,28.87,-3.37,2.25,-0.31,6,5
1771525377.710773,255346,0.43,-0.22,-0.16,-73.44,-79.94,59.31,21.37,7.31,3.00,-0.14,-0.09,0.09,99.31,78.62,29.37,-5.31,1.25,1.31,6,5
1771525377.900994,255536,0.04,0.13,0.04,-71.56,-79.94,59.94,-3.31,-2.75,-5.06,-0.09,-0.07,0.14,97.12,78.44,29.37,2.50,-1.12,-0.25,5,6
1771525378.090905,255726,0.21,-0.12,-0.04,-69.25,-80.37,59.75,-5.19,-0.13,1.69,-0.13,-0.11,0.00,97.69,78.50,28.69,4.62,-2.62,-2.00,6,7
1771525378.283515,255919,0.11,0.04,-0.05,-66.81,-79.56,57.38,-21.50,-4.62,3.81,-0.09,0.14,0.03,98.50,78.94,29.25,1.81,-2.62,0.13,6,7
1771525378.474227,256110,0.15,0.13,-0.05,-65.31,-79.37,55.06,-1.06,2.00,0.00,-0.08,-0.04,0.02,100.87,78.75,28.81,-0.81,-0.06,-0.37,6,6
1771525378.664615,256300,0.19,-0.07,0.03,-66.69,-79.69,55.88,6.75,-0.19,-0.19,-0.10,0.00,0.00,98.62,78.81,28.75,-0.44,0.88,0.62,6,5
1771525378.855946,256491,0.32,-0.03,-0.09,-67.69,-79.81,56.56,2.69,1.75,-0.81,-0.09,-0.06,0.09,97.81,78.87,28.94,-0.88,0.13,0.69,6,5
1771525379.045245,256681,0.26,-0.08,0.01,-67.69,-80.12,57.06,1.94,-1.44,-2.06,-0.05,0.09,0.09,98.19,78.69,28.62,2.37,-0.06,1.37,5,6
1771525379.237331,256873,0.16,0.19,-0.02,-69.69,-80.31,57.25,5.19,7.62,-1.69,-0.12,-0.14,0.03,100.75,78.31,27.81,1.44,-0.69,0.75,4,6
1771525379.428016,257063,0.51,-0.38,-0.20,-78.50,-80.37,59.31,6.81,-0.94,0.56,-0.23,-0.14,-0.17,102.56,78.19,27.62,-0.69,-2.31,0.25,4,5
1771525379.618314,257254,0.33,0.03,0.07,-73.69,-79.94,59.56,-0.81,-7.31,1.06,-0.12,-0.02,0.02,99.69,78.56,28.44,-1.00,4.81,-2.12,4,6
1771525379.808088,257444,0.20,0.07,-0.06,-68.06,-79.37,59.06,-4.62,0.25,0.50,-0.13,-0.02,0.07,97.44,78.87,28.75,1.37,-1.12,0.25,5,6
1771525379.997978,257633,0.20,0.00,-0.04,-67.19,-79.31,58.63,-2.19,-1.87,-0.37,-0.09,0.00,0.04,96.50,78.94,28.94,-2.06,2.37,0.19,5,6
1771525380.190458,257826,0.27,-0.01,-0.07,-67.12,-79.50,58.50,0.19,1.87,-1.37,-0.04,0.00,0.06,95.50,78.94,29.06,-1.00,-0.19,0.37,6,6
1771525380.381294,258017,0.26,-0.04,-0.14,-67.81,-79.56,58.19,-4.31,-0.75,1.44,-0.09,-0.07,0.10,95.31,78.81,29.19,-0.56,-2.56,0.50,8,6
1771525380.572312,258208,0.18,-0.10,-0.06,-63.13,-79.19,57.56,-6.31,-8.94,-0.88,-0.13,-0.09,0.08,96.94,78.75,29.19,-1.19,-0.25,0.81,9,6
1771525380.763358,258399,0.05,-0.10,0.12,-55.63,-78.69,57.31,0.44,-3.44,-2.00,-0.04,-0.01,0.01,97.44,78.75,29.12,0.75,0.44,-0.31,9,6
1771525380.952483,258588,0.34,0.08,-0.13,-56.31,-78.62,56.94,-1.94,2.56,1.31,-0.11,-0.05,0.08,97.12,78.75,29.19,1.31,-0.06,-0.31,9,6
1771525381.144788,258780,0.33,-0.11,-0.13,-56.81,-78.69,56.81,-2.19,0.75,0.13,-0.07,-0.01,0.23,97.06,78.75,29.12,1.87,0.44,-0.88,10,7
1771525381.335085,258971,0.46,0.17,-0.23,-58.38,-79.31,55.00,-9.50,7.25,0.69,-0.18,-0.13,-0.13,99.12,78.62,28.50,0.94,1.25,-1.81,9,6
1771525381.525570,259161,0.04,0.07,0.20,-60.06,-79.25,54.75,3.69,1.87,0.62,-0.04,-0.06,0.15,98.44,78.81,28.44,-0.56,-0.50,0.69,10,6
1771525381.715113,259351,0.27,0.07,-0.06,-67.37,-79.37,55.50,26.31,15.81,3.06,-0.04,0.13,-0.07,98.69,78.94,29.25,-7.75,-2.87,0.69,10,6
1771525381.905003,259541,0.17,-0.31,0.08,-73.06,-79.19,58.94,8.25,-12.75,-2.62,-0.09,-0.10,0.21,96.62,78.81,29.25,-1.75,2.25,0.69,10,6
1771525382.097872,259733,0.23,-0.40,-0.09,-67.25,-79.50,61.06,3.37,2.12,-5.56,-0.06,-0.07,0.04,96.06,78.69,29.00,2.81,-1.44,0.25,9,6
1771525382.288248,259924,0.15,0.04,0.03,-65.31,-79.44,61.00,-2.75,-3.19,3.31,-0.08,0.02,0.09,98.25,78.81,28.94,0.00,1.00,-1.81,8,6
1771525382.479117,260115,0.31,0.00,-0.10,-65.81,-79.06,60.31,-2.62,-3.00,0.19,-0.08,0.01,0.04,98.06,78.81,28.94,-0.37,1.87,0.50,6,6
1771525382.670661,260306,0.26,-0.09,-0.17,-63.50,-78.87,59.81,-6.25,-1.50,0.75,-0.07,-0.13,0.24,97.62,78.81,28.94,2.00,-2.69,-0.13,7,6
1771525382.859692,260495,0.36,0.02,-0.04,-60.69,-78.75,58.88,-1.94,-2.94,0.31,-0.08,-0.14,-0.02,98.44,78.75,28.81,-3.06,3.00,-1.25,7,6
1771525383.051569,260687,0.08,0.07,0.15,-57.31,-78.25,58.44,-2.87,2.50,1.75,0.00,-0.05,0.24,98.31,79.00,28.87,0.25,0.25,-1.44,7,6
1771525383.242817,260878,0.88,-0.24,-0.01,-72.81,-79.62,58.94,19.44,31.56,-2.19,-0.13,-0.02,-0.29,101.62,78.94,28.75,4.37,-2.87,-2.00,11,7
1771525383.432873,261069,0.38,0.17,-0.14,-86.87,-79.75,58.88,-10.38,5.06,3.75,-0.06,0.00,0.00,101.56,79.06,28.81,0.00,4.69,-0.62,10,6
1771525383.622017,261258,0.22,0.06,-0.27,-87.19,-79.31,57.38,-3.81,-0.25,0.44,-0.01,0.10,0.20,97.25,79.37,29.69,-2.81,6.12,-1.37,10,6
1771525383.811854,261447,0.13,-0.07,0.23,-85.12,-79.50,57.50,-1.87,0.13,-4.19,-0.04,0.00,0.07,96.19,79.25,29.62,-0.06,-1.94,1.62,11,5
1771525384.005154,261641,0.20,-0.18,0.14,-87.69,-80.25,58.25,-0.81,8.31,-0.69,-0.11,0.00,-0.07,97.06,79.06,29.37,-1.87,-0.31,0.31,11,4
1771525384.196089,261831,0.36,-0.09,-0.21,-96.50,-80.00,57.38,1.00,7.50,-1.00,-0.13,-0.05,-0.04,96.62,79.06,29.75,0.44,-1.06,-0.25,16,4
1771525384.386689,262022,0.43,-0.15,-0.14,-104.87,-79.56,57.13,-0.19,6.37,5.44,-0.18,-0.16,-0.06,97.31,79.31,30.06,1.62,-1.62,-0.56,20,6
1771525384.575686,262211,0.53,0.15,-0.10,-107.94,-78.31,55.50,-4.50,-0.56,3.50,-0.08,0.00,0.08,96.12,79.50,30.12,2.44,0.94,-0.88,20,5
1771525384.765147,262401,0.41,-0.07,-0.14,-106.75,-77.94,54.94,0.50,-2.19,0.00,-0.10,0.09,0.00,95.87,79.56,30.56,-4.06,-6.69,1.12,20,5
1771525384.958490,262594,0.55,-0.11,-0.18,-106.12,-78.25,55.50,2.56,-2.25,-2.81,-0.05,0.11,-0.26,103.81,79.00,30.75,-1.50,-6.56,1.62,20,5
1771525385.149516,262785,0.36,0.12,0.04,-103.37,-78.69,55.81,1.12,-1.19,-1.12,-0.18,-0.19,-0.26,107.31,78.37,30.75,0.06,2.06,-0.13,18,4
1771525385.340042,262976,0.08,0.02,0.01,-99.75,-78.62,56.38,6.00,7.06,-4.06,0.68,0.06,0.49,107.81,78.75,31.12,-2.12,20.19,-5.87,18,5
1771525385.528998,263165,0.35,0.32,-0.13,-101.19,-78.50,56.13,-3.12,6.50,4.87,0.04,0.02,0.13,107.31,78.94,31.12,-3.00,4.12,1.00,19,5
1771525385.718775,263354,0.48,-0.04,-0.15,-105.87,-78.12,55.69,1.37,2.69,-3.69,-0.09,-0.01,-0.09,104.25,78.37,31.12,-4.31,1.87,2.62,18,5
1771525385.911908,263547,0.10,-0.20,0.07,-106.44,-78.81,56.88,2.50,-1.69,-0.69,-0.09,-0.12,0.11,102.69,78.44,31.31,-1.75,2.12,0.25,19,5
1771525386.102698,263738,0.29,-0.18,-0.03,-108.00,-79.00,57.63,4.50,-0.31,-2.44,-0.08,0.04,0.07,100.81,78.37,31.44,0.69,0.69,-0.88,15,5
1771525386.293583,263929,0.32,-0.06,-0.03,-109.25,-79.19,58.25,-0.75,-0.50,0.00,-0.11,-0.01,0.05,100.81,78.44,31.19,0.31,-0.13,-0.37,12,4
1771525386.484607,264120,0.21,-0.01,0.01,-108.87,-79.19,58.31,0.19,-0.19,-0.19,-0.08,0.01,0.03,100.56,78.44,31.12,-0.19,0.44,-0.44,11,4
