host_time_s,t_ms,ax1,ay1,az1,roll1,pitch1,yaw1,gx1,gy1,gz1,ax2,ay2,az2,roll2,pitch2,yaw2,gx2,gy2,gz2,emg1,emg2
1772394070.131722,3826303,0.08,-0.20,0.09,-60.38,-79.94,259.31,-0.75,3.06,-4.81,-0.01,0.32,-0.02,-4.69,-85.12,82.25,4.12,-0.25,1.62,4,3
1772394070.134319,3826342,0.09,-0.24,-0.05,-60.56,-80.12,259.44,-0.19,4.31,-3.31,-0.01,0.27,-0.10,-4.81,-85.00,82.31,5.62,-3.81,-0.37,3,2
1772394070.134981,3826384,0.07,-0.28,-0.05,-60.88,-80.31,259.56,-0.31,2.75,-1.81,-0.03,0.20,0.04,-4.81,-85.00,82.62,7.31,-6.69,-2.12,3,2
1772394070.136080,3826425,-0.02,-0.24,0.00,-61.06,-80.44,259.62,-0.62,2.81,-1.37,-0.17,-0.12,0.15,-4.69,-85.00,83.06,6.12,-8.13,-4.00,2,2
1772394070.137150,3826465,0.08,-0.27,-0.06,-61.94,-80.56,259.62,-1.25,7.37,1.50,-0.11,-0.05,-0.02,-4.50,-85.06,83.44,2.06,-4.62,-3.62,2,2
1772394070.137874,3826504,0.34,-0.13,-0.12,-63.44,-80.62,259.44,-2.06,4.75,2.62,-0.08,0.01,-0.12,-4.37,-85.12,83.62,0.13,-2.37,-3.06,2,2
1772394070.138588,3826543,0.39,-0.04,-0.15,-63.88,-80.56,259.25,-3.12,-0.75,1.81,-0.02,0.18,-0.18,-4.31,-85.19,83.62,-3.37,-0.19,-2.69,3,2
1772394070.139291,3826585,0.22,-0.06,-0.08,-63.06,-80.44,259.12,-4.31,-5.94,1.00,-0.05,0.19,-0.12,-4.19,-85.25,83.62,-3.44,-2.69,-4.44,3,2
1772394070.140026,3826626,0.08,-0.04,0.01,-61.75,-80.31,258.94,-3.19,-5.62,1.94,-0.07,0.12,-0.03,-4.00,-85.37,83.69,-2.06,-2.87,-3.94,2,2
1772394070.140640,3826666,0.12,0.01,0.02,-60.50,-80.12,258.75,-2.75,-4.69,1.87,-0.12,0.00,0.18,-3.87,-85.37,83.81,-1.69,-2.50,-2.75,2,2
1772394070.141002,3826705,0.06,-0.04,-0.05,-59.88,-80.00,258.62,-2.81,-2.00,1.69,-0.04,0.01,0.07,-3.81,-85.44,83.75,-2.25,-0.06,-1.25,2,2
1772394070.141292,3826744,0.22,0.12,-0.12,-59.81,-79.94,258.44,-3.87,0.44,1.56,-0.04,0.11,0.08,-3.81,-85.44,83.75,-0.50,-1.12,-0.56,2,2
1772394070.141632,3826786,0.17,0.22,-0.08,-59.75,-79.87,258.31,-2.31,-0.88,-0.94,-0.08,0.10,0.01,-3.75,-85.44,83.75,-0.37,-1.25,-0.81,2,2
1772394070.142334,3826826,0.26,0.14,-0.09,-59.56,-79.87,258.31,1.00,-1.50,-1.69,-0.03,0.01,-0.11,-3.75,-85.44,83.81,0.75,-3.87,-2.56,3,2
1772394070.143017,3826867,0.11,0.12,0.00,-59.13,-79.87,258.44,4.87,-3.25,-1.50,-0.01,-0.05,-0.20,-3.56,-85.37,84.00,1.87,-7.25,-4.81,3,2
1772394070.143571,3826906,0.05,0.00,0.15,-58.75,-79.81,258.75,8.56,-3.31,1.00,-0.04,-0.15,-0.11,-3.37,-85.37,84.31,1.81,-8.81,-5.00,3,4
1772394070.144038,3826945,0.16,-0.09,0.09,-58.75,-79.69,258.94,6.87,-2.44,3.50,-0.07,-0.07,-0.11,-3.25,-85.31,84.56,2.12,-7.12,-3.37,2,5
1772394070.144492,3826986,0.10,-0.01,0.08,-58.88,-79.50,258.94,3.00,-2.25,4.00,-0.17,-0.04,-0.05,-3.12,-85.25,84.75,1.19,-2.62,-1.25,2,5
1772394070.144973,3827027,0.00,0.08,0.17,-58.88,-79.31,258.87,-1.06,-1.31,2.31,-0.10,0.08,0.00,-3.19,-85.25,84.69,-0.69,2.81,2.62,3,6
1772394070.145444,3827067,0.33,0.20,-0.08,-59.06,-79.31,258.75,-2.56,1.81,0.00,-0.02,0.17,-0.07,-3.31,-85.25,84.50,0.50,1.62,3.37,3,5
1772394070.145904,3827106,0.24,0.34,0.00,-59.06,-79.31,258.69,-0.75,-0.37,-3.19,-0.07,0.16,0.00,-3.44,-85.19,84.44,2.12,0.50,3.06,4,5
1772394070.146343,3827145,0.16,0.14,-0.07,-58.81,-79.44,258.87,4.44,0.81,-6.00,-0.06,0.07,0.05,-3.56,-85.06,84.37,2.44,-0.75,2.25,4,5
1772394070.146767,3827187,0.21,-0.01,-0.16,-58.63,-79.69,259.37,7.37,0.37,-6.44,-0.14,-0.02,0.00,-3.62,-85.00,84.37,1.25,0.06,1.87,5,5
1772394070.147209,3827228,0.10,-0.18,-0.16,-57.94,-79.87,259.87,6.75,-3.06,-5.87,-0.17,-0.18,0.09,-3.69,-85.00,84.37,0.88,-0.88,1.37,5,5
1772394070.147677,3827268,-0.18,-0.09,0.07,-57.00,-79.94,260.25,4.12,-0.88,-3.69,-0.12,-0.13,0.17,-3.75,-84.94,84.31,-0.13,2.00,2.69,5,5
1772394070.148124,3827307,0.00,0.18,-0.09,-57.56,-80.06,260.44,3.81,4.56,-0.69,-0.19,-0.21,0.12,-3.81,-84.94,84.25,0.81,2.19,3.06,4,4
1772394070.148552,3827347,0.45,0.31,-0.15,-59.00,-80.19,260.56,7.56,5.62,1.62,-0.09,-0.08,-0.15,-4.00,-84.94,84.12,2.19,2.25,4.19,5,3
1772394070.148979,3827389,0.40,0.78,-0.03,-60.13,-80.19,260.87,13.75,2.31,0.75,0.01,0.01,-0.15,-4.19,-84.81,83.94,0.06,2.31,6.25,5,2
1772394070.149406,3827430,0.33,0.87,0.01,-60.63,-80.25,261.69,26.31,-3.12,-5.25,0.04,0.26,-0.22,-4.44,-84.69,83.62,-3.75,6.19,7.19,5,2
1772394070.149774,3827470,0.40,0.26,0.03,-60.44,-80.44,263.12,34.13,-1.50,-16.44,0.01,0.11,0.00,-4.75,-84.56,83.12,-4.75,7.62,6.25,6,2
1772394070.150167,3827509,0.05,-0.40,0.06,-58.56,-81.12,265.25,33.44,-2.87,-23.69,-0.26,-0.22,0.30,-5.00,-84.50,82.62,-7.56,16.56,9.06,6,2
1772394070.150540,3827551,0.07,-0.80,-0.07,-56.44,-81.81,267.12,25.56,1.12,-19.37,-0.10,0.07,-0.14,-5.37,-84.31,81.94,1.00,6.31,8.13,7,3
1772394070.150918,3827592,0.37,-0.83,-0.24,-55.31,-82.37,268.37,15.31,0.56,-12.06,-0.03,0.06,-0.21,-5.81,-84.00,81.56,3.81,7.37,10.31,6,3
1772394070.151308,3827633,0.29,-0.79,-0.13,-51.75,-82.87,269.37,0.81,-9.31,-5.75,0.02,0.22,-0.22,-6.25,-83.62,81.37,4.94,1.06,7.44,6,3
1772394070.151691,3827672,0.31,-0.68,-0.09,-46.25,-83.00,269.81,-5.81,-15.38,-2.00,0.08,0.25,-0.14,-6.44,-83.44,81.37,7.25,-2.69,3.69,6,3
1772394070.152097,3827711,0.04,-0.47,0.24,-41.50,-82.56,269.56,-11.69,-18.94,3.25,-0.09,-0.01,0.21,-6.56,-83.25,81.69,11.13,-7.56,0.69,6,3
1772394070.152533,3827753,-0.32,-0.25,0.48,-39.31,-81.87,269.00,-11.31,-14.31,8.25,-0.02,0.12,-0.01,-6.56,-83.25,82.06,7.50,-3.19,-0.94,5,3
1772394070.152922,3827794,-0.20,-0.36,0.44,-39.00,-81.37,268.31,-10.19,-5.12,12.13,-0.08,0.24,-0.03,-6.50,-83.31,82.44,6.75,-7.56,-4.00,5,4
1772394070.153295,3827836,0.07,-0.34,0.33,-39.75,-80.94,267.50,-11.50,-2.87,13.50,0.05,0.18,-0.01,-6.31,-83.37,82.81,3.12,-6.00,-5.56,4,3
1772394070.153673,3827876,0.07,-0.22,0.30,-41.56,-80.50,266.56,-12.06,-1.00,16.00,0.12,0.41,-0.13,-6.19,-83.50,83.06,1.37,-5.87,-6.12,4,3
1772394070.154034,3827915,0.27,0.06,0.18,-43.69,-80.06,265.56,-9.38,0.88,15.88,-0.01,0.31,0.00,-6.00,-83.56,83.25,0.19,-8.00,-8.13,3,3
1772394070.154407,3827955,0.20,0.13,0.04,-45.75,-79.62,264.69,-6.56,-0.44,14.00,0.01,0.32,-0.10,-5.75,-83.69,83.50,-1.81,-5.12,-7.31,3,2
1772394070.154772,3827995,0.17,0.41,0.07,-47.31,-79.25,263.94,-5.81,-1.37,9.31,-0.13,0.15,0.07,-5.50,-83.81,83.75,-1.62,-7.81,-7.69,2,2
1772394070.155133,3828037,0.19,0.48,0.05,-47.81,-79.06,263.50,-3.81,-0.69,3.25,-0.08,0.10,0.12,-5.25,-83.94,83.87,-4.62,-7.06,-7.12,2,2
1772394070.155495,3828077,0.15,0.50,0.08,-48.13,-78.87,263.25,-1.87,-0.62,-2.31,-0.07,-0.04,0.07,-5.00,-84.00,84.00,-4.62,-7.62,-6.19,3,2
1772394070.155820,3828116,0.21,0.31,-0.08,-48.13,-78.87,263.25,1.94,1.81,-5.19,-0.11,-0.19,0.09,-4.75,-84.00,84.06,-4.25,-5.87,-4.75,3,1
1772394070.156154,3828156,0.23,0.12,-0.19,-48.19,-79.00,263.44,5.00,0.69,-3.75,-0.14,-0.23,-0.11,-4.56,-84.06,84.06,-3.56,-1.75,-2.37,3,1
1772394070.156486,3828196,0.16,0.04,-0.25,-48.25,-79.06,263.69,4.44,-2.06,-1.50,-0.12,-0.29,-0.12,-4.44,-84.12,84.12,-2.50,-1.69,-1.81,2,1
1772394070.156815,3828238,0.19,0.09,-0.18,-48.19,-79.06,263.87,1.87,-3.37,-0.25,-0.13,-0.25,-0.04,-4.31,-84.19,84.19,-2.87,-1.69,-1.81,2,1
1772394070.157140,3828279,0.13,0.09,-0.02,-47.81,-78.94,263.87,0.75,-4.44,1.00,-0.09,-0.23,-0.11,-4.19,-84.31,84.12,-3.19,-0.44,-1.62,3,1
1772394070.187558,3828321,0.18,0.15,0.06,-47.50,-78.75,263.81,-0.75,-3.81,2.81,-0.05,-0.17,-0.15,-4.06,-84.37,84.19,-1.62,-2.62,-3.00,3,0
1772394070.226247,3828359,0.10,0.14,0.09,-47.44,-78.56,263.69,-1.00,-2.69,2.62,-0.11,-0.14,0.00,-3.87,-84.37,84.31,-1.00,-2.87,-2.81,3,0
1772394070.265071,3828398,0.11,0.05,0.06,-47.31,-78.37,263.50,-1.94,-1.94,2.31,-0.12,-0.14,-0.01,-3.81,-84.44,84.37,-2.69,0.44,-1.25,3,1
1772394070.306766,3828440,0.08,0.04,0.09,-47.31,-78.31,263.37,-4.00,-0.75,2.81,-0.10,0.03,-0.05,-3.81,-84.50,84.25,-1.81,0.06,-0.13,3,1
1772394070.348272,3828482,0.16,0.08,0.08,-47.38,-78.19,263.06,-5.75,0.44,2.12,-0.15,-0.07,0.31,-3.81,-84.50,84.06,-4.56,2.00,1.87,3,0
1772394070.389301,3828523,-0.04,0.02,0.04,-47.50,-78.19,262.81,-6.00,4.44,-0.19,-0.07,-0.05,0.21,-4.00,-84.62,83.56,-9.31,13.81,5.12,3,1
1772394070.428417,3828562,0.07,-0.03,-0.20,-48.13,-78.37,262.50,-7.31,8.25,-0.31,0.00,0.19,-0.02,-4.12,-84.81,83.12,-4.75,11.19,3.62,2,1
1772394070.467885,3828601,0.51,0.01,-0.33,-48.88,-78.56,262.25,-7.50,5.31,0.06,-0.08,0.13,-0.15,-4.25,-84.81,83.00,3.25,2.69,3.56,4,2
1772394070.509345,3828643,0.54,0.18,-0.16,-48.63,-78.50,262.00,-5.94,-3.56,0.75,0.01,0.18,-0.22,-4.44,-84.75,82.87,1.19,3.31,3.81,4,2
1772394070.550922,3828684,0.25,0.23,0.15,-47.56,-78.37,261.94,-2.00,-7.12,-1.75,-0.01,0.32,-0.10,-4.62,-84.69,82.75,0.62,-0.94,0.31,4,2
1772394070.590795,3828724,0.04,0.01,0.32,-45.88,-78.25,262.12,2.37,-8.38,-5.75,-0.05,0.11,0.09,-4.62,-84.62,82.69,-2.19,0.62,-1.75,4,2
1772394070.630058,3828763,-0.10,-0.27,0.25,-44.38,-78.25,262.56,4.06,-3.94,-5.81,0.05,0.32,-0.17,-4.62,-84.69,82.62,-0.50,-1.56,-3.19,4,3
1772394070.669318,3828803,0.19,-0.29,0.11,-43.75,-78.31,262.81,4.25,-1.75,-0.94,-0.08,0.09,-0.14,-4.44,-84.75,82.94,4.12,-7.75,-5.25,4,3
1772394070.710472,3828844,0.17,-0.08,0.12,-43.69,-78.12,262.87,3.50,-5.06,4.62,-0.03,-0.09,-0.09,-4.25,-84.75,83.31,5.00,-8.56,-3.62,3,3
1772394070.751786,3828885,0.01,0.11,0.14,-43.94,-77.81,262.75,1.69,-3.50,5.44,-0.12,-0.11,0.14,-4.19,-84.69,83.56,2.25,-4.06,-2.12,3,3
1772394070.791819,3828925,0.00,0.25,0.07,-44.25,-77.69,262.62,-0.56,0.31,1.31,-0.16,-0.01,0.14,-4.06,-84.69,83.69,-0.50,-0.88,-1.62,4,3
1772394070.830580,3828964,0.03,0.20,0.01,-44.44,-77.75,262.62,-1.06,2.37,-1.87,-0.13,-0.03,0.09,-4.06,-84.75,83.75,-1.44,0.62,-0.75,4,3
1772394070.871763,3829005,0.11,0.16,-0.05,-44.63,-77.94,262.62,-0.37,3.81,-2.25,-0.09,-0.03,0.01,-4.00,-84.75,83.69,-0.25,0.13,-0.13,2,1
1772394070.912882,3829046,0.15,0.11,-0.07,-44.94,-78.06,262.69,1.12,3.62,-2.12,-0.07,-0.03,-0.01,-4.00,-84.75,83.69,0.13,1.56,1.56,2,1
1772394070.953777,3829087,0.22,0.07,-0.08,-45.31,-78.19,262.81,0.88,3.12,-1.31,-0.07,0.00,-0.07,-4.12,-84.75,83.62,1.62,1.25,2.00,1,1
1772394070.993104,3829126,0.21,0.12,-0.02,-45.44,-78.31,262.81,-0.13,1.37,-1.94,-0.01,0.07,-0.20,-4.19,-84.69,83.62,2.37,0.44,1.87,1,1
1772394071.032261,3829165,0.19,0.18,0.09,-45.31,-78.37,262.87,-0.25,-0.31,-2.44,-0.01,0.11,-0.16,-4.25,-84.62,83.69,3.69,-2.62,0.37,1,1
1772394071.072179,3829206,0.17,0.13,0.15,-44.75,-78.37,263.00,1.69,-1.81,-4.06,-0.08,0.01,0.02,-4.25,-84.56,83.75,1.00,-1.31,0.25,1,0
1772394071.113440,3829247,-0.02,-0.03,0.17,-44.00,-78.44,263.31,3.44,-0.50,-5.37,-0.04,0.07,0.03,-4.25,-84.56,83.75,0.06,0.62,0.25,1,0
1772394071.153866,3829287,0.04,-0.19,0.10,-43.56,-78.62,263.62,3.37,3.37,-4.69,-0.06,0.14,-0.17,-4.25,-84.56,83.81,1.37,-1.44,-1.25,1,0
1772394071.193535,3829327,0.19,-0.22,0.04,-43.50,-78.81,263.87,2.94,2.37,-2.19,-0.10,0.10,-0.11,-4.25,-84.56,83.94,2.87,-3.00,-1.69,1,0
1772394071.232507,3829366,0.10,-0.20,0.09,-43.44,-78.81,263.94,1.50,0.62,0.06,-0.05,0.04,-0.02,-4.19,-84.56,84.12,2.37,-3.25,-1.50,1,1
1772394071.272462,3829406,0.08,-0.13,0.06,-43.56,-78.87,264.00,0.13,3.00,0.31,-0.05,0.13,0.03,-4.12,-84.50,84.25,1.75,-1.81,-0.50,1,1
1772394071.313643,3829447,0.10,-0.12,0.00,-44.06,-79.06,263.94,-0.94,5.81,-0.88,-0.10,0.12,0.10,-4.12,-84.50,84.31,0.56,-0.06,0.06,2,1
1772394071.354204,3829487,0.10,-0.12,-0.08,-44.75,-79.25,263.94,-1.25,6.87,-1.19,-0.07,0.09,0.04,-4.19,-84.44,84.25,-0.13,0.44,0.00,2,1
1772394071.394194,3829527,0.09,-0.06,-0.17,-45.69,-79.50,263.94,-0.81,7.44,-0.13,-0.12,0.06,0.02,-4.12,-84.44,84.31,1.31,-1.06,-0.94,2,2
1772394071.433263,3829566,0.19,-0.05,-0.15,-46.88,-79.69,263.87,0.13,7.44,0.19,-0.10,-0.01,0.09,-4.12,-84.44,84.37,0.94,-1.44,-1.69,2,2
1772394071.474173,3829607,0.08,-0.05,-0.14,-48.13,-79.87,263.81,0.62,6.62,0.81,-0.14,-0.01,0.05,-4.06,-84.50,84.44,-1.25,0.31,-1.00,3,2
1772394071.515244,3829648,0.14,-0.19,-0.19,-49.31,-80.06,263.81,0.44,5.69,1.56,-0.07,0.00,-0.06,-4.00,-84.50,84.44,-2.37,1.87,-0.62,2,3
1772394071.555616,3829689,0.32,-0.15,-0.23,-50.56,-80.06,263.62,-1.81,3.87,4.06,-0.01,0.01,-0.11,-4.00,-84.62,84.31,-1.31,1.56,-0.06,2,4
1772394071.595035,3829728,0.36,0.02,-0.13,-51.44,-80.00,263.31,-4.37,-0.06,4.75,-0.02,0.03,-0.13,-4.00,-84.62,84.31,-0.69,0.81,0.19,2,4
1772394071.635005,3829768,0.26,0.13,-0.08,-51.56,-79.81,263.00,-5.56,-3.25,4.19,0.00,0.06,-0.18,-4.00,-84.62,84.31,1.19,-0.62,-0.19,2,4
1772394071.675830,3829809,0.23,0.24,0.06,-51.25,-79.56,262.69,-4.62,-5.94,3.62,-0.07,0.01,-0.07,-4.00,-84.62,84.37,2.62,-3.87,-1.12,3,4
1772394071.717432,3829851,0.02,0.28,0.22,-50.50,-79.31,262.50,-2.31,-5.19,1.06,-0.08,-0.03,0.09,-3.94,-84.50,84.50,0.00,-2.12,-0.31,2,4
1772394071.759137,3829893,-0.05,0.14,0.23,-50.00,-79.25,262.44,0.25,0.75,-1.69,-0.07,0.00,0.08,-4.00,-84.50,84.44,-0.94,1.19,1.31,2,4
1772394071.798672,3829932,0.08,-0.02,0.04,-50.00,-79.31,262.50,-0.44,3.37,-2.31,-0.06,0.01,0.06,-4.06,-84.50,84.31,-1.69,3.44,2.44,2,4
1772394071.837514,3829971,0.05,-0.02,-0.01,-50.38,-79.50,262.56,-1.56,5.06,-2.44,-0.01,0.14,-0.16,-4.19,-84.56,84.12,-1.25,4.81,3.19,2,4
1772394071.879097,3830012,0.30,-0.11,-0.14,-51.00,-79.69,262.50,-3.25,5.31,-1.00,-0.10,0.10,-0.08,-4.25,-84.50,84.06,2.06,-0.06,1.31,2,4
1772394071.919488,3830053,0.14,-0.05,-0.03,-51.38,-79.81,262.37,-4.56,1.56,-1.06,-0.04,0.10,-0.07,-4.31,-84.50,84.06,0.81,0.06,0.62,2,4
1772394071.962095,3830095,0.07,-0.03,0.12,-51.38,-79.94,262.25,-3.81,3.69,-1.31,-0.06,0.05,-0.03,-4.31,-84.50,84.12,0.37,-0.13,0.19,1,4
1772394072.004090,3830137,0.14,-0.06,0.09,-51.75,-80.06,262.19,-2.44,5.19,-0.81,-0.07,0.05,-0.02,-4.31,-84.50,84.12,0.00,0.81,0.31,1,3
1772394072.045142,3830178,0.14,-0.06,0.08,-52.75,-80.19,262.06,-1.31,5.12,0.81,-0.07,0.07,-0.07,-4.31,-84.50,84.06,0.44,1.19,0.94,2,4
1772394072.085969,3830219,0.12,-0.02,0.05,-53.81,-80.25,261.94,-1.19,5.75,1.50,-0.08,0.14,-0.02,-4.31,-84.50,84.06,0.69,-0.50,0.37,3,5
1772394072.127040,3830260,0.12,-0.03,0.02,-54.88,-80.37,261.87,-1.25,5.37,0.56,-0.03,0.10,0.00,-4.31,-84.50,84.06,-0.56,-0.62,-0.31,3,6
1772394072.168250,3830301,0.16,-0.08,-0.10,-55.88,-80.50,261.81,-1.19,5.19,-0.31,-0.06,0.12,0.03,-4.31,-84.50,84.06,-1.12,-0.69,-0.88,3,6
1772394072.209433,3830342,0.30,-0.15,-0.14,-55.88,-80.56,261.75,-2.56,-0.94,-2.44,-0.04,0.03,-0.01,-4.25,-84.56,84.06,-1.87,0.25,-1.31,3,7
1772394072.248496,3830381,-0.01,-0.10,-0.08,-55.06,-80.62,261.75,-3.25,-2.00,-1.31,-0.12,0.04,0.04,-4.19,-84.56,84.06,-1.06,-0.69,-1.31,4,7
1772394072.287584,3830421,0.09,-0.10,-0.10,-55.13,-80.69,261.69,-2.62,2.00,0.50,-0.06,0.06,-0.03,-4.19,-84.62,84.06,-2.00,0.69,-0.94,4,8
1772394072.328260,3830462,0.08,-0.03,-0.07,-55.69,-80.69,261.50,-2.37,1.81,1.50,0.00,0.12,-0.10,-4.12,-84.69,84.00,-2.19,0.62,-0.88,5,8
1772394072.370170,3830503,0.35,-0.02,-0.15,-56.38,-80.69,261.37,-1.87,1.00,2.00,-0.04,0.08,-0.07,-4.06,-84.69,84.00,-0.94,-0.88,-1.37,5,8
1772394072.412094,3830545,0.13,0.04,-0.02,-56.31,-80.62,261.25,-1.25,-1.12,1.81,-0.05,0.04,0.00,-4.00,-84.69,84.12,-0.50,-1.56,-1.81,5,7
1772394072.451426,3830585,0.15,0.04,-0.10,-56.44,-80.50,261.12,-1.00,-2.12,1.75,-0.09,0.00,0.00,-3.94,-84.75,84.12,-0.88,-0.94,-1.50,5,7
1772394072.490744,3830624,0.08,-0.01,-0.05,-56.06,-80.37,261.00,-1.75,-3.19,1.75,-0.10,0.01,0.02,-3.87,-84.75,84.19,-0.75,-1.00,-1.37,3,5
1772394072.532263,3830666,0.03,0.04,0.00,-55.69,-80.25,260.87,-2.69,-2.75,0.88,-0.07,0.01,0.01,-3.81,-84.75,84.19,-1.25,-0.31,-1.12,3,4
1772394072.572525,3830706,0.24,0.06,-0.10,-55.31,-80.19,260.75,-1.44,-1.50,1.87,-0.04,0.00,-0.03,-3.81,-84.81,84.19,-0.56,0.00,-0.88,3,3
1772394072.614384,3830748,0.24,0.08,-0.07,-55.50,-80.12,260.62,-0.62,0.69,3.19,-0.04,0.06,-0.08,-3.81,-84.81,84.19,0.00,0.56,0.00,2,3
1772394072.656469,3830790,0.36,0.10,-0.05,-56.06,-80.00,260.50,-0.13,0.06,2.12,-0.04,0.10,-0.13,-3.81,-84.81,84.19,-0.13,1.06,0.62,2,2
1772394072.697846,3830831,0.41,0.15,-0.04,-56.13,-79.94,260.44,0.62,-1.31,0.81,-0.06,0.12,-0.13,-3.81,-84.81,84.19,-0.37,1.50,0.37,2,2
1772394072.738301,3830872,0.06,0.10,0.09,-55.75,-79.87,260.44,2.19,-1.00,-0.19,-0.08,0.10,-0.06,-3.81,-84.87,84.19,-0.31,0.19,0.00,2,2
1772394072.779372,3830913,0.07,0.03,0.08,-55.75,-79.87,260.56,2.50,0.19,-0.94,-0.04,0.06,-0.05,-3.81,-84.87,84.19,0.37,-0.31,0.06,1,2
1772394072.820828,3830954,0.09,-0.02,0.04,-55.75,-79.87,260.69,2.50,-0.13,-0.62,-0.07,0.10,-0.09,-3.81,-84.87,84.19,1.00,-0.56,0.19,2,1
1772394072.862577,3830996,0.11,0.00,0.02,-55.56,-79.94,260.75,0.69,-1.31,-1.31,-0.09,0.11,-0.06,-3.81,-84.81,84.25,0.94,-1.06,0.06,2,2
1772394072.901350,3831035,0.09,0.00,0.06,-55.19,-79.94,260.87,0.37,-0.88,-1.94,-0.11,0.04,0.03,-3.81,-84.81,84.25,-0.75,1.12,1.19,2,2
1772394072.940590,3831074,0.13,-0.02,-0.01,-54.94,-80.00,260.94,0.19,0.50,-2.06,-0.03,0.13,-0.01,-3.87,-84.81,84.12,-0.94,2.19,1.75,2,2
1772394072.983178,3831116,0.20,-0.02,-0.08,-54.81,-80.06,261.00,-0.25,0.81,-2.37,-0.06,0.16,-0.04,-3.94,-84.81,84.06,-0.62,1.12,0.81,2,3
1772394073.023853,3831157,0.20,-0.08,-0.11,-54.38,-80.19,261.12,0.69,-0.69,-2.87,-0.02,0.11,-0.08,-3.94,-84.81,84.00,-0.94,1.37,0.44,2,3
1772394073.065986,3831199,0.17,-0.14,-0.08,-53.94,-80.19,261.25,0.25,-1.87,-1.06,-0.06,0.19,-0.09,-3.94,-84.81,84.00,0.06,0.25,0.37,2,3
1772394073.107429,3831240,0.14,-0.06,-0.01,-53.31,-80.19,261.31,0.56,-3.31,-1.81,-0.07,0.11,-0.11,-3.94,-84.81,84.00,-0.31,1.06,0.31,3,3
1772394073.149099,3831282,0.17,-0.10,0.07,-52.38,-80.12,261.37,0.25,-2.87,-0.81,-0.03,0.11,-0.06,-3.94,-84.81,84.00,-0.37,0.31,-0.25,3,3
1772394073.189906,3831323,0.23,-0.17,0.04,-51.63,-80.06,261.37,-1.19,-6.37,-0.56,-0.01,0.07,-0.12,-3.94,-84.87,83.94,-0.75,0.69,0.25,3,3
1772394073.231266,3831364,0.02,-0.09,0.15,-50.13,-79.87,261.37,-2.00,-7.81,-0.44,-0.07,0.09,-0.07,-3.94,-84.87,83.94,-0.13,-0.31,-0.37,3,4
1772394073.272321,3831405,0.00,0.00,0.11,-49.38,-79.75,261.31,-1.62,-3.75,0.75,-0.10,0.08,-0.04,-3.94,-84.87,83.94,-0.94,0.56,-0.13,3,4
1772394073.313777,3831447,0.08,0.02,0.09,-48.88,-79.69,261.31,-1.19,-2.31,0.62,-0.08,0.13,-0.05,-3.94,-84.87,83.94,-0.37,0.44,0.13,3,3
1772394073.356049,3831489,0.12,0.15,0.10,-48.81,-79.62,261.25,-0.06,1.06,0.19,-0.06,0.11,-0.08,-3.94,-84.87,83.94,-0.37,0.06,-0.06,4,3
1772394073.396474,3831530,0.00,0.08,0.13,-49.25,-79.69,261.19,1.06,6.56,0.37,-0.06,0.09,-0.02,-3.94,-84.87,83.94,-0.19,0.00,-0.13,4,3
1772394073.438266,3831572,0.24,-0.06,-0.08,-50.44,-79.81,261.19,0.62,4.19,1.12,-0.04,0.13,-0.05,-3.94,-84.87,83.94,-0.13,0.69,0.56,4,3
1772394073.477417,3831610,0.30,-0.01,-0.12,-51.25,-79.87,261.12,-0.69,3.06,0.44,-0.07,0.12,-0.03,-3.94,-84.87,83.94,-0.19,-0.19,0.37,3,3
1772394073.519063,3831652,0.14,0.00,-0.06,-51.31,-79.94,261.12,-1.00,0.13,-0.62,-0.06,0.10,-0.04,-3.94,-84.87,83.94,-0.75,0.69,0.31,3,2
1772394073.560966,3831694,0.17,-0.03,-0.03,-51.38,-79.94,261.12,-0.31,1.06,-0.25,-0.06,0.12,-0.05,-3.94,-84.87,83.87,-0.19,-0.13,-0.25,2,2
1772394073.602000,3831735,0.21,-0.06,-0.04,-51.44,-79.94,261.06,-0.69,-0.06,0.19,-0.06,0.11,-0.08,-3.94,-84.87,83.87,0.19,0.37,-0.25,3,2
1772394073.642244,3831775,0.14,-0.06,0.04,-51.25,-79.94,261.06,-1.87,-1.31,0.44,-0.06,0.10,-0.08,-3.94,-84.87,83.87,-0.31,1.00,0.25,3,1
1772394073.683382,3831817,0.14,-0.05,0.07,-51.13,-79.94,261.00,-2.00,-0.25,0.56,-0.10,0.14,-0.08,-3.94,-84.94,83.87,-1.00,0.75,0.50,4,1
1772394073.725284,3831859,0.13,-0.06,0.03,-51.06,-79.87,260.87,-2.75,-0.75,0.88,-0.17,0.08,0.02,-4.00,-84.94,83.81,-2.06,2.19,1.00,5,1
1772394073.767263,3831900,0.16,-0.02,0.06,-51.00,-79.87,260.69,-5.06,-0.37,1.06,-0.19,0.09,-0.01,-4.06,-85.00,83.56,-3.94,3.00,0.69,6,2
1772394073.806979,3831940,0.29,-0.04,-0.13,-50.81,-79.81,260.50,-6.00,-2.75,0.00,-0.17,-0.02,0.15,-4.06,-85.12,83.25,-10.31,11.38,1.50,6,2
1772394073.846041,3831979,0.11,-0.21,-0.33,-49.88,-79.81,260.31,-7.25,-3.87,-1.56,0.01,0.07,-0.03,-4.12,-85.31,82.69,-8.69,7.69,1.81,6,2
1772394073.887174,3832020,0.32,-0.06,-0.31,-48.88,-79.81,260.12,-11.19,-5.12,-2.62,0.00,0.10,0.06,-4.19,-85.31,82.31,-8.56,9.75,3.25,7,3
1772394073.927443,3832061,0.14,0.17,0.00,-47.25,-79.75,259.81,-11.69,-5.81,-1.69,0.00,0.28,-0.16,-4.31,-85.31,82.00,-0.06,2.44,2.87,7,3
1772394073.968676,3832102,0.11,0.27,0.18,-45.69,-79.62,259.56,-10.44,-4.87,-3.00,0.00,0.23,-0.25,-4.50,-85.19,81.94,2.56,0.50,1.94,7,5
1772394074.009012,3832142,0.20,0.26,0.30,-44.06,-79.56,259.37,-8.38,-4.50,-4.62,0.00,0.13,-0.19,-4.56,-85.12,81.94,3.37,-2.75,0.62,7,7
1772394074.048443,3832182,0.07,0.19,0.28,-42.25,-79.44,259.25,-5.81,-4.00,-7.06,-0.02,0.10,-0.13,-4.56,-85.06,82.06,1.69,-4.69,-1.62,7,8
1772394074.088929,3832222,0.08,-0.03,0.18,-40.44,-79.50,259.37,-2.87,-0.94,-8.25,-0.07,-0.05,0.01,-4.44,-85.06,82.19,-1.56,-3.44,-3.00,6,8
1772394074.128485,3832262,0.02,-0.15,0.01,-39.06,-79.69,259.56,-1.75,0.56,-5.12,-0.13,-0.06,0.04,-4.37,-85.19,82.25,-1.69,0.00,-2.06,6,9
1772394074.170430,3832303,0.07,-0.09,-0.09,-38.44,-79.75,259.62,-2.69,1.00,0.19,-0.06,-0.10,-0.13,-4.31,-85.19,82.31,1.00,0.62,-0.06,4,10
1772394074.210963,3832344,0.08,-0.03,-0.12,-38.69,-79.81,259.50,-2.94,0.62,1.56,-0.07,0.01,0.13,-4.37,-85.12,82.31,2.31,-3.44,2.00,4,12
1772394074.253106,3832386,-0.08,-0.02,0.02,-38.94,-79.75,259.31,-4.56,1.12,3.87,0.11,0.14,0.01,-4.44,-85.00,82.37,3.19,-0.13,3.25,4,17
1772394074.291792,3832425,0.20,-0.08,-0.05,-40.13,-79.81,258.87,-6.12,7.25,2.00,0.17,0.64,-0.38,-4.62,-84.94,82.25,1.19,3.50,4.37,3,19
1772394074.330854,3832464,0.52,-0.06,0.04,-40.88,-79.94,258.56,-8.88,4.06,1.44,-0.06,0.49,-0.27,-4.75,-84.75,82.44,12.38,-8.56,1.31,3,18
1772394074.372190,3832506,0.28,-0.01,0.28,-40.81,-79.94,258.31,-9.50,-2.75,0.56,0.04,0.26,-0.18,-4.81,-84.62,82.75,9.50,-1.56,0.50,4,18
1772394074.413935,3832547,-0.03,0.08,0.32,-40.00,-79.81,257.87,-7.62,-0.81,1.31,-0.07,0.18,-0.05,-4.94,-84.56,83.12,12.56,-5.19,-1.87,3,19
1772394074.455140,3832588,0.01,0.09,0.10,-40.13,-79.81,257.69,-2.87,3.31,-0.50,-0.17,-0.09,-0.01,-4.87,-84.50,83.62,7.81,-5.62,-1.81,3,20
1772394074.494063,3832627,0.00,-0.08,-0.10,-40.44,-79.94,257.75,3.06,3.50,-1.50,-0.16,-0.10,0.00,-4.81,-84.50,83.87,0.37,-1.87,-1.37,3,22
1772394074.532957,3832666,0.16,-0.23,-0.17,-40.81,-80.12,258.00,4.94,2.81,-1.44,-0.02,0.00,-0.01,-4.75,-84.50,83.75,-7.81,0.75,-0.69,3,24
1772394074.574540,3832708,0.26,-0.25,-0.04,-40.94,-80.25,258.12,1.44,2.44,-0.62,0.03,0.29,-0.16,-4.75,-84.56,83.37,-9.06,2.00,0.06,4,25
1772394074.615363,3832749,0.18,-0.09,0.21,-41.13,-80.31,258.19,1.25,2.81,0.31,0.05,0.46,-0.18,-4.69,-84.56,83.12,-7.75,1.06,-0.62,4,24
1772394074.655944,3832789,0.13,0.17,0.35,-41.63,-80.37,258.31,6.87,3.87,0.62,0.03,0.48,-0.21,-4.81,-84.50,82.75,-2.69,-3.37,-1.62,4,22
1772394074.695118,3832828,0.10,-0.04,0.19,-42.81,-80.37,258.62,14.88,4.69,2.56,0.03,0.32,-0.03,-4.87,-84.37,82.69,0.62,-5.69,-2.94,4,22
1772394074.735492,3832869,0.18,-0.05,-0.05,-44.88,-80.37,259.00,16.44,4.31,4.50,-0.12,0.15,0.05,-4.81,-84.31,82.87,4.19,-7.50,-3.25,3,24
1772394074.776895,3832910,0.14,-0.23,-0.25,-46.38,-80.37,259.44,14.44,1.37,1.25,-0.18,-0.02,0.08,-4.69,-84.31,83.12,-1.31,-2.31,-3.75,3,25
1772394074.817441,3832951,0.14,-0.33,-0.36,-46.88,-80.50,259.81,6.81,0.62,0.69,-0.09,-0.12,0.06,-4.56,-84.37,83.19,-2.00,-2.56,-3.56,3,24
1772394074.857436,3832991,0.13,-0.22,-0.30,-47.25,-80.56,259.87,-1.81,0.25,2.12,-0.12,-0.27,0.03,-4.37,-84.44,83.25,-1.62,-4.31,-3.25,3,23
1772394074.896765,3833030,0.03,-0.05,-0.20,-47.69,-80.62,259.62,-6.06,-0.37,2.69,-0.21,-0.26,0.21,-4.19,-84.50,83.37,-4.00,-2.19,-3.69,3,21
1772394074.936331,3833070,-0.05,0.00,-0.05,-48.06,-80.56,259.31,-7.75,2.31,3.00,-0.08,-0.01,0.07,-4.06,-84.56,83.31,-6.75,2.69,-2.25,3,19
1772394074.977265,3833111,0.16,0.03,-0.10,-49.38,-80.56,258.81,-7.06,5.87,5.44,-0.03,0.07,-0.08,-3.94,-84.69,83.19,-4.31,2.37,-1.44,1,17
1772394075.017579,3833151,0.41,0.17,-0.09,-51.25,-80.50,258.31,-5.94,5.69,6.69,0.02,0.13,-0.40,-3.87,-84.81,83.12,-0.81,0.50,-1.00,2,15
1772394075.057691,3833191,0.22,0.28,0.16,-53.00,-80.37,257.81,-4.69,4.94,7.44,-0.07,0.03,-0.13,-3.87,-84.81,83.19,2.44,-4.25,-2.00,2,13
1772394075.096972,3833230,0.27,0.32,0.03,-54.38,-80.12,257.31,-2.81,1.44,4.44,-0.08,-0.02,-0.07,-3.75,-84.75,83.37,1.44,-3.56,-1.69,2,10
1772394075.138094,3833271,0.13,0.26,0.12,-54.63,-79.94,257.12,-0.37,-1.31,1.37,-0.09,0.03,-0.08,-3.75,-84.75,83.44,-0.81,-0.94,-0.62,3,7
1772394075.179225,3833312,0.17,0.11,0.06,-54.56,-79.87,257.12,1.50,-0.56,-0.62,-0.01,0.09,-0.07,-3.69,-84.75,83.37,-0.88,-0.06,0.62,3,5
1772394075.219776,3833353,0.21,0.18,0.05,-54.63,-79.87,257.19,2.06,0.44,-0.44,-0.02,0.13,-0.04,-3.75,-84.69,83.37,2.00,-1.62,0.81,3,3
1772394075.259200,3833393,0.15,0.25,0.02,-54.88,-79.87,257.31,4.50,1.75,-1.94,-0.08,0.08,-0.02,-3.81,-84.62,83.44,3.50,-3.37,0.31,3,2
1772394075.298232,3833432,0.27,0.27,0.00,-55.25,-80.00,257.56,7.44,2.00,-4.50,-0.11,0.07,-0.05,-3.81,-84.56,83.56,3.62,-3.69,0.06,3,2
1772394075.338326,3833472,0.15,0.11,0.01,-55.06,-80.19,258.06,9.88,0.56,-7.12,-0.11,0.00,0.02,-3.81,-84.44,83.69,1.25,-2.12,0.06,2,2
1772394075.379678,3833513,0.11,-0.10,-0.06,-54.50,-80.44,258.75,9.69,0.75,-8.50,-0.08,-0.02,0.00,-3.81,-84.44,83.69,0.25,-0.31,0.44,3,2
1772394075.419330,3833553,0.13,-0.24,-0.09,-53.88,-80.75,259.37,7.56,1.06,-8.31,-0.10,0.00,0.00,-3.81,-84.44,83.69,0.62,0.00,0.56,3,3
1772394075.459426,3833593,0.11,-0.25,-0.14,-53.06,-81.06,259.87,3.56,1.19,-7.31,-0.08,0.02,-0.08,-3.87,-84.44,83.69,0.88,1.50,1.81,3,3
1772394075.498317,3833632,0.20,-0.19,-0.14,-52.50,-81.31,260.19,0.50,1.50,-4.06,-0.08,0.07,-0.17,-3.94,-84.44,83.62,1.87,-0.44,1.25,2,3
1772394075.538489,3833672,0.16,-0.18,-0.09,-52.00,-81.37,260.31,-0.75,-1.75,-1.37,-0.06,0.12,-0.05,-4.00,-84.37,83.62,0.75,-0.81,2.31,2,4
1772394075.579426,3833713,0.09,-0.12,0.00,-51.31,-81.37,260.31,-1.37,-2.37,-1.56,-0.12,0.17,0.02,-4.12,-84.25,83.44,-2.87,2.31,3.12,2,4
1772394075.619965,3833753,0.10,-0.20,0.02,-50.31,-81.44,260.37,-1.31,-1.81,-3.06,-0.11,0.07,0.10,-4.25,-84.19,83.25,-5.00,4.00,2.81,2,4
1772394075.660034,3833793,0.05,-0.19,0.06,-49.31,-81.50,260.50,-1.62,-1.19,-2.69,-0.06,0.05,0.05,-4.31,-84.25,82.94,-4.44,3.37,2.50,2,4
1772394075.699270,3833832,-0.04,-0.26,-0.01,-48.81,-81.56,260.50,-2.31,2.06,-0.50,-0.01,0.09,-0.03,-4.44,-84.25,82.62,-3.69,4.50,1.69,2,5
1772394075.738227,3833871,0.10,-0.19,-0.08,-49.50,-81.62,260.31,-4.25,4.31,2.62,-0.06,0.12,-0.02,-4.50,-84.31,82.50,-2.44,3.25,1.12,2,5
1772394075.779390,3833913,0.32,-0.09,-0.14,-50.81,-81.62,260.00,-6.50,3.69,4.31,0.00,0.12,-0.14,-4.56,-84.31,82.31,-2.37,4.69,2.06,2,5
1772394075.820057,3833953,0.31,0.12,-0.09,-51.63,-81.56,259.56,-6.87,0.44,4.06,-0.05,0.19,-0.10,-4.62,-84.37,82.12,-1.81,3.62,1.44,2,4
1772394075.860378,3833994,0.19,0.18,0.00,-51.63,-81.44,259.25,-4.87,-2.75,1.69,0.01,0.26,-0.19,-4.75,-84.37,82.00,0.69,0.44,-0.44,2,4
1772394075.899396,3834033,0.27,0.14,0.03,-51.19,-81.31,259.06,-1.62,-4.00,1.69,0.05,0.18,-0.19,-4.75,-84.31,82.06,3.75,-3.69,-2.37,2,4
1772394075.938328,3834072,0.16,0.12,0.04,-50.50,-81.12,259.06,1.62,-5.37,1.12,-0.06,0.09,-0.09,-4.69,-84.31,82.37,6.06,-6.87,-3.50,2,4
1772394075.980325,3834113,0.13,-0.03,-0.01,-49.56,-80.87,259.12,3.62,-7.06,0.88,-0.07,0.05,-0.04,-4.56,-84.31,82.69,5.87,-5.75,-3.25,2,4
1772394076.020871,3834154,0.20,-0.10,-0.09,-48.63,-80.69,259.25,2.94,-7.06,1.37,-0.09,0.00,0.00,-4.44,-84.25,83.00,3.56,-4.00,-1.94,2,4
1772394076.061358,3834195,0.20,-0.14,-0.12,-47.44,-80.50,259.31,-0.37,-7.75,0.06,-0.09,0.03,0.03,-4.44,-84.25,83.19,2.25,-2.37,-0.94,2,4
1772394076.100472,3834234,0.06,-0.11,-0.01,-45.94,-80.31,259.25,-4.50,-7.25,-0.88,-0.11,0.03,0.07,-4.37,-84.19,83.31,1.44,-1.31,-0.69,2,4
1772394076.141000,3834274,0.02,-0.01,0.03,-44.50,-80.19,259.12,-6.06,-4.94,-1.81,-0.11,0.05,0.07,-4.37,-84.19,83.37,0.25,-0.69,-0.88,1,4
1772394076.182097,3834315,0.07,-0.04,0.07,-43.38,-80.12,259.00,-5.31,-2.94,-1.94,-0.08,0.05,0.01,-4.31,-84.25,83.37,-0.62,-0.25,-1.00,1,3
1772394076.222400,3834355,-0.04,-0.03,0.17,-42.63,-80.12,258.94,-4.37,-1.50,-0.94,-0.02,0.07,-0.08,-4.31,-84.25,83.37,-0.19,-0.56,-1.12,1,3
1772394076.262391,3834396,0.16,0.00,0.11,-42.50,-80.12,258.81,-2.87,1.44,0.75,-0.03,0.08,-0.11,-4.25,-84.25,83.44,-0.06,-0.81,-0.94,2,2
1772394076.302320,3834436,0.23,0.08,0.09,-42.75,-80.12,258.69,-1.37,0.50,1.56,-0.03,0.11,-0.11,-4.25,-84.25,83.44,0.13,-0.69,-0.69,2,2
1772394076.343414,3834477,0.22,0.18,0.11,-42.94,-80.06,258.62,0.44,-0.44,0.37,-0.04,0.15,-0.08,-4.25,-84.25,83.44,0.13,0.50,-0.13,2,2
1772394076.385299,3834519,0.15,0.07,0.11,-42.75,-80.00,258.62,1.94,-0.81,-1.75,-0.04,0.12,-0.09,-4.25,-84.25,83.50,0.81,-1.00,-0.94,2,2
1772394076.426692,3834560,0.07,0.10,0.11,-42.50,-80.00,258.81,3.50,0.69,-1.75,-0.13,0.07,-0.01,-4.19,-84.25,83.56,1.87,-2.19,-1.00,2,2
1772394076.465779,3834599,0.14,-0.07,0.03,-42.44,-80.06,259.00,4.81,1.50,-3.00,-0.08,0.00,-0.10,-4.19,-84.25,83.62,0.31,-1.87,-0.69,2,1
1772394076.504391,3834638,0.09,-0.15,0.06,-42.31,-80.19,259.25,4.06,1.56,-2.19,-0.09,0.02,0.02,-4.19,-84.19,83.69,1.56,-2.87,-0.37,2,1
1772394076.546606,3834680,0.01,-0.14,0.00,-42.44,-80.31,259.44,2.75,2.75,-1.62,-0.10,-0.04,-0.05,-4.19,-84.06,83.75,1.50,-3.37,0.00,3,1
1772394076.587249,3834721,0.02,-0.11,-0.08,-42.94,-80.37,259.50,1.00,2.00,2.56,-0.01,0.14,0.18,-4.12,-84.00,83.87,3.69,-2.75,-1.69,3,1
1772394076.628899,3834762,0.10,0.12,-0.11,-44.00,-80.44,259.44,2.44,6.50,0.94,-0.19,-0.06,-0.15,-4.12,-84.00,84.00,0.62,-1.12,-1.25,3,1
1772394076.669144,3834802,0.36,-0.18,-0.24,-45.00,-80.56,259.50,0.31,0.69,0.75,-0.08,0.19,0.17,-4.12,-84.00,84.00,0.31,-0.31,-0.31,3,2
1772394076.709036,3834843,0.00,0.06,0.07,-45.13,-80.56,259.50,1.56,3.81,-1.56,0.00,0.10,-0.14,-4.06,-84.06,84.06,0.25,0.81,-2.00,3,2
1772394076.749400,3834882,0.22,-0.15,-0.10,-45.75,-80.75,259.62,3.81,4.62,-0.62,-0.08,0.14,-0.05,-4.00,-84.06,84.12,1.00,-2.62,-2.31,3,3
1772394076.789022,3834922,0.21,-0.15,-0.03,-46.56,-80.87,259.75,3.31,2.12,2.44,-0.06,0.06,-0.08,-3.94,-84.06,84.31,2.44,-2.50,-2.06,3,2
1772394076.830301,3834964,0.14,-0.01,0.03,-47.38,-80.81,259.75,1.87,1.12,3.56,-0.03,0.06,-0.08,-3.87,-84.00,84.50,3.94,-2.62,-2.12,3,3
1772394076.871312,3835005,0.17,0.05,0.03,-48.38,-80.75,259.62,2.94,2.12,4.06,-0.03,0.01,-0.07,-3.81,-84.00,84.75,5.06,-2.94,-2.06,3,3
1772394076.912774,3835046,0.24,0.00,-0.06,-49.75,-80.69,259.56,3.00,2.12,3.19,-0.09,-0.08,-0.03,-3.75,-83.94,85.00,3.69,-3.00,-2.00,3,3
1772394076.951339,3835085,0.08,0.01,-0.08,-50.75,-80.62,259.56,2.06,2.62,3.19,-0.11,-0.16,0.00,-3.69,-83.94,85.19,2.75,-2.19,-1.06,3,4
1772394076.990321,3835124,0.25,0.03,-0.12,-51.75,-80.69,259.44,-0.50,3.87,1.06,-0.05,-0.08,-0.07,-3.69,-83.94,85.25,0.44,1.12,0.69,4,5
1772394077.032596,3835166,0.31,-0.09,-0.09,-52.13,-80.75,259.44,-2.62,2.25,-1.56,-0.05,0.11,-0.08,-3.75,-83.94,85.06,-3.62,3.25,2.12,3,5
1772394077.074079,3835207,0.14,-0.02,0.06,-51.81,-80.81,259.37,-4.50,0.75,-2.06,-0.05,0.21,-0.22,-3.87,-84.00,84.81,-3.37,3.56,2.87,3,4
1772394077.114890,3835248,0.17,0.00,0.17,-51.38,-80.94,259.31,-4.37,0.44,-2.50,-0.05,0.14,-0.05,-4.00,-84.00,84.62,0.31,-0.69,1.56,3,4
1772394077.155224,3835289,0.11,0.02,0.12,-51.06,-81.00,259.25,-0.56,1.56,-0.94,-0.03,0.13,-0.04,-4.06,-83.94,84.56,0.94,-0.25,1.00,3,4
1772394077.195320,3835329,0.18,-0.08,-0.03,-51.50,-81.06,259.31,1.75,4.50,-1.37,-0.01,0.13,-0.08,-4.12,-83.87,84.56,-1.37,0.75,0.94,3,4
1772394077.236781,3835370,0.23,-0.13,-0.14,-51.75,-81.25,259.50,0.69,2.06,-3.37,-0.17,0.17,-0.07,-4.12,-83.94,84.44,-3.81,0.62,-0.19,2,4
1772394077.277459,3835411,0.03,-0.23,-0.11,-51.13,-81.37,259.62,-1.31,-1.75,-3.19,-0.12,0.17,0.05,-4.12,-83.94,84.25,-3.31,-0.81,-1.31,2,3
1772394077.316996,3835450,0.06,-0.08,-0.18,-50.75,-81.44,259.62,-2.56,-1.19,0.25,-0.12,0.04,0.15,-4.06,-83.87,84.25,0.44,-3.44,-2.00,2,3
1772394077.356159,3835489,0.24,-0.05,-0.21,-50.50,-81.37,259.56,-0.69,-2.00,0.44,-0.09,-0.09,0.17,-4.00,-83.81,84.37,0.06,-2.94,-2.31,2,3
1772394077.395978,3835529,0.17,-0.09,-0.17,-50.06,-81.31,259.56,0.00,-2.94,0.69,-0.10,-0.05,0.09,-3.87,-83.87,84.44,-1.69,0.44,-1.25,2,2
1772394077.437304,3835570,0.10,-0.07,-0.06,-49.69,-81.25,259.56,-1.31,-2.56,1.37,-0.09,-0.02,-0.03,-3.87,-83.87,84.37,-2.31,1.81,-0.69,2,2
1772394077.477530,3835611,0.14,-0.02,-0.04,-49.50,-81.12,259.37,-2.81,-1.75,2.00,-0.05,0.06,-0.14,-3.81,-83.94,84.31,-1.50,0.81,-0.69,2,2
1772394077.517524,3835651,0.27,0.12,-0.02,-49.38,-81.00,259.19,-3.81,-2.12,2.12,-0.05,0.04,-0.14,-3.81,-84.00,84.31,-1.00,0.00,-0.62,2,2
1772394077.557301,3835691,0.23,0.12,0.05,-48.94,-80.87,259.00,-3.19,-3.69,1.50,-0.06,0.06,-0.01,-3.81,-84.00,84.31,-0.19,-0.75,-0.56,2,2
1772394077.598319,3835732,0.08,0.15,0.12,-48.38,-80.75,258.87,-2.25,-3.00,-0.06,-0.06,0.03,0.00,-3.81,-84.00,84.31,-0.25,0.13,-0.19,2,2
1772394077.639631,3835773,0.08,0.11,0.09,-47.88,-80.69,258.81,-0.88,-1.37,-0.69,-0.08,0.05,-0.03,-3.81,-84.00,84.31,-0.75,0.62,0.06,2,2
1772394077.681877,3835815,0.10,0.03,0.08,-47.56,-80.69,258.87,-0.44,-0.19,-1.31,-0.07,0.08,0.00,-3.81,-84.06,84.25,-0.31,0.37,0.25,2,2
1772394077.721221,3835855,0.11,0.03,0.06,-47.31,-80.69,258.87,0.00,0.50,-1.50,-0.06,0.08,-0.05,-3.81,-84.06,84.25,-0.50,0.81,0.31,1,2
1772394077.760320,3835894,0.11,0.00,0.00,-47.19,-80.75,259.00,0.88,1.12,-2.00,-0.07,0.10,-0.07,-3.81,-84.06,84.25,0.37,-0.25,-0.25,1,2
1772394077.801862,3835935,-0.05,-0.03,0.05,-47.06,-80.87,259.12,2.19,1.69,-1.00,-0.06,0.05,-0.15,-3.75,-84.00,84.37,2.56,-3.31,-1.44,1,2
1772394077.842187,3835975,0.24,-0.14,0.00,-47.38,-80.87,259.19,2.00,-0.25,0.75,-0.10,0.04,-0.05,-3.75,-83.94,84.44,1.31,-2.25,0.13,1,2
1772394077.884019,3836017,0.11,-0.03,0.04,-47.56,-80.87,259.19,-0.37,1.50,1.19,0.01,0.07,-0.16,-3.81,-83.94,84.37,-0.37,-0.81,1.62,1,3
1772394077.925562,3836059,0.19,0.04,-0.08,-48.00,-80.87,259.12,-1.50,1.06,0.25,-0.12,0.07,0.01,-3.87,-83.87,84.25,-1.31,1.56,3.00,1,3
1772394077.966660,3836100,0.24,0.03,-0.12,-48.00,-80.87,259.06,-2.12,0.88,-1.37,-0.07,0.08,-0.06,-4.00,-83.87,84.12,-0.62,2.31,2.31,1,4
1772394078.008042,3836141,0.00,0.00,-0.05,-47.56,-80.94,259.06,-1.62,-2.12,-2.25,-0.10,0.09,-0.01,-4.06,-83.87,84.00,-0.13,0.81,0.81,1,4
1772394078.048130,3836181,0.06,-0.03,-0.06,-47.06,-81.00,259.12,0.37,-0.69,-1.44,-0.14,0.06,0.08,-4.06,-83.87,84.00,-0.69,-0.81,-0.31,1,4
1772394078.089118,3836222,0.09,-0.16,0.00,-46.81,-81.00,259.25,2.31,0.50,-1.00,-0.06,0.07,0.04,-4.06,-83.81,84.00,-0.13,-1.12,-0.69,2,5
1772394078.129108,3836263,0.20,-0.19,-0.10,-46.94,-81.06,259.31,1.44,0.25,0.62,-0.06,0.07,-0.06,-4.06,-83.81,84.00,0.69,-0.25,-0.19,2,5
1772394078.169504,3836303,0.05,-0.16,-0.10,-47.25,-81.06,259.31,-1.00,-0.06,2.81,-0.08,0.05,-0.03,-4.06,-83.81,84.06,0.69,0.69,-0.06,3,6
1772394078.208781,3836342,0.27,-0.05,-0.13,-47.94,-81.00,259.06,-2.25,1.37,3.37,-0.09,0.12,-0.04,-4.06,-83.87,84.06,-0.75,2.69,0.62,3,6
1772394078.249937,3836383,0.30,-0.09,-0.06,-48.13,-80.87,258.94,-2.37,-1.12,2.31,-0.04,0.12,-0.16,-4.06,-83.94,84.00,-0.62,0.81,0.00,4,6
1772394078.290992,3836424,0.17,0.01,0.14,-48.06,-80.75,258.75,-2.50,-3.19,2.62,-0.03,0.15,-0.09,-4.06,-83.94,84.00,0.37,0.06,-0.50,4,5
1772394078.331544,3836465,0.03,0.09,0.22,-47.69,-80.56,258.56,-1.12,-1.75,2.44,-0.09,0.09,-0.01,-4.06,-83.94,84.06,0.62,-0.56,-0.75,4,5
1772394078.370457,3836504,0.03,0.02,0.18,-48.00,-80.50,258.50,0.56,0.19,2.19,-0.08,0.10,-0.20,-4.06,-83.94,84.06,0.00,1.06,0.25,4,5
1772394078.410175,3836543,0.00,0.04,0.17,-48.44,-80.44,258.37,-0.19,1.37,2.37,-0.09,0.06,-0.01,-4.06,-83.94,84.06,-0.19,-1.31,-0.75,5,5
1772394078.451071,3836584,0.22,0.12,-0.02,-49.44,-80.44,258.25,0.19,5.56,1.75,-0.08,0.07,-0.02,-4.00,-83.94,84.12,-1.06,-0.19,-0.50,5,4
1772394078.492075,3836625,0.27,0.04,-0.16,-50.31,-80.56,258.25,0.75,2.69,-0.06,-0.02,0.11,-0.11,-4.00,-83.94,84.06,-1.25,1.69,0.13,5,4
1772394078.534595,3836668,0.22,-0.03,-0.12,-50.63,-80.56,258.25,0.88,0.94,0.00,-0.06,0.09,-0.11,-4.00,-84.00,84.00,-0.06,-0.25,-0.62,4,3
1772394078.576981,3836710,0.24,-0.02,-0.13,-50.69,-80.56,258.25,0.06,-0.75,0.13,-0.09,0.05,-0.04,-4.00,-83.94,84.06,-0.13,-0.62,-0.37,4,3
1772394078.618600,3836752,0.09,-0.04,-0.06,-50.44,-80.56,258.25,-0.25,-2.00,-0.56,-0.10,0.05,0.04,-4.00,-83.94,84.06,-0.88,0.81,-0.19,4,3
1772394078.660433,3836793,0.13,-0.09,-0.03,-50.06,-80.50,258.31,-0.56,-0.69,0.00,-0.10,0.06,-0.03,-4.00,-83.94,84.00,-0.25,-0.06,-0.31,3,4
1772394078.700297,3836834,0.13,0.00,-0.04,-49.88,-80.50,258.25,-0.75,-1.44,0.75,-0.10,0.02,-0.01,-4.00,-83.94,84.00,0.44,-0.62,-0.56,3,4
1772394078.741461,3836875,0.05,0.00,0.00,-49.88,-80.44,258.25,0.06,-0.37,0.75,-0.07,0.07,-0.06,-4.00,-83.94,84.00,-0.25,-0.06,-0.25,3,3
1772394078.782522,3836916,0.18,-0.07,-0.01,-50.06,-80.44,258.19,-0.44,0.56,1.00,-0.03,0.09,-0.12,-4.00,-83.94,84.00,-0.37,0.00,-0.44,2,3
1772394078.822484,3836956,0.23,-0.05,-0.05,-50.13,-80.37,258.12,-1.37,-1.12,1.00,-0.04,0.12,-0.17,-4.00,-83.94,84.00,-0.19,0.31,-0.31,2,3
1772394078.862278,3836996,0.26,0.03,-0.12,-49.88,-80.31,258.06,-1.75,-3.00,0.75,-0.09,0.08,-0.08,-4.00,-83.94,84.00,-0.50,0.06,-0.44,2,4
1772394078.903293,3837037,0.19,0.03,-0.09,-49.06,-80.19,258.00,-2.25,-4.81,0.13,-0.06,0.06,-0.05,-4.00,-83.94,84.00,-0.50,0.00,-0.31,3,4
1772394078.944211,3837077,0.36,0.00,-0.17,-48.13,-80.06,257.94,-2.62,-5.69,-0.37,-0.07,0.08,-0.08,-4.00,-83.94,84.00,-0.81,-0.44,-0.69,3,4
1772394078.984567,3837118,0.33,0.00,-0.07,-46.63,-79.87,257.87,-3.37,-7.94,-1.12,-0.11,0.07,-0.02,-3.94,-83.94,84.00,-0.62,0.00,-0.37,2,3
1772394079.024026,3837157,-0.05,0.00,0.19,-45.06,-79.75,257.87,-3.25,-6.06,-2.12,-0.08,0.02,-0.02,-3.94,-83.94,84.00,-0.06,-0.13,-0.50,2,3
1772394079.063420,3837197,0.01,0.10,0.13,-44.31,-79.69,257.81,-2.44,-1.44,-0.62,-0.13,0.04,0.03,-3.94,-83.94,84.00,-0.56,1.12,0.44,2,2
1772394079.104563,3837238,0.05,0.00,0.05,-44.13,-79.69,257.81,-0.13,0.56,-1.00,-0.07,0.09,-0.12,-3.94,-84.00,83.94,-1.56,1.69,0.50,2,2
1772394079.146138,3837279,0.12,-0.03,0.04,-44.31,-79.75,257.81,0.37,2.00,0.00,-0.06,0.10,-0.09,-3.94,-84.06,83.87,-0.88,-0.25,-0.62,2,2
1772394079.187916,3837321,0.20,-0.03,0.06,-44.63,-79.81,257.81,0.88,1.25,-0.31,0.00,0.13,-0.15,-3.94,-84.06,83.87,-0.88,0.06,-0.62,2,2
1772394079.227663,3837361,0.14,-0.06,0.09,-44.88,-79.81,257.81,1.37,1.81,0.37,-0.06,0.08,-0.17,-3.94,-84.06,83.87,-0.13,0.37,-0.25,2,2
1772394079.267135,3837401,-0.10,0.02,0.24,-45.44,-79.81,257.81,2.06,3.00,2.31,-0.11,0.03,-0.05,-3.94,-84.06,83.87,0.00,0.37,0.00,2,1
1772394079.307797,3837441,0.00,0.08,0.24,-46.94,-79.87,257.81,5.62,7.81,4.25,-0.09,0.04,0.00,-3.94,-84.06,83.81,-0.81,1.31,1.25,2,1
1772394079.348064,3837482,0.13,0.11,0.05,-49.06,-79.94,257.75,6.44,8.44,4.50,-0.10,0.08,-0.09,-4.06,-84.06,83.75,-0.13,0.81,1.87,2,2
1772394079.390668,3837524,0.24,0.10,-0.08,-51.25,-80.00,257.81,6.37,6.56,1.87,-0.09,0.16,-0.13,-4.06,-84.06,83.69,-0.44,-0.06,0.06,2,2
1772394079.433162,3837566,0.31,-0.08,-0.25,-53.00,-80.12,258.00,6.12,4.06,-0.94,-0.09,0.12,-0.04,-4.00,-84.00,83.69,-2.06,-0.62,-1.06,3,2
1772394079.473801,3837607,0.24,-0.21,-0.23,-53.31,-80.31,258.25,4.25,0.13,-2.56,-0.04,0.09,0.00,-4.00,-84.06,83.62,-1.94,1.62,-0.06,3,1
1772394079.513267,3837646,0.12,-0.28,-0.14,-53.13,-80.44,258.50,1.50,-0.31,-1.25,-0.03,0.12,-0.11,-4.00,-84.12,83.56,-1.50,2.69,0.69,3,1
1772394079.552136,3837685,0.24,-0.08,-0.09,-53.31,-80.44,258.50,-0.81,-0.37,2.37,-0.06,0.09,-0.14,-4.00,-84.12,83.56,2.62,-1.44,0.06,3,2
1772394079.593656,3837727,0.11,0.12,0.04,-53.25,-80.31,258.31,-1.06,-2.62,2.25,-0.12,0.09,0.01,-4.00,-84.06,83.69,2.44,-1.87,-0.44,3,1
1772394079.634545,3837768,0.00,0.03,0.12,-53.00,-80.19,258.31,0.25,-0.81,-0.25,-0.08,0.08,0.00,-4.00,-84.06,83.69,-1.25,0.31,0.00,3,1
1772394079.675786,3837809,0.11,-0.09,0.05,-53.00,-80.25,258.31,-0.06,1.25,-0.94,-0.09,0.12,-0.10,-4.00,-84.06,83.62,-1.06,-0.31,-0.88,3,1
1772394079.714977,3837848,0.17,-0.03,0.02,-53.13,-80.31,258.37,-0.56,1.19,-0.62,-0.07,0.08,-0.08,-3.94,-84.06,83.62,-1.00,-0.81,-1.62,3,1
1772394079.754458,3837888,0.10,-0.10,0.09,-53.50,-80.37,258.37,1.00,2.37,-0.19,-0.04,0.08,-0.13,-3.87,-84.12,83.69,-0.62,-0.44,-1.75,3,1
1772394079.795593,3837929,0.17,-0.13,0.01,-54.00,-80.37,258.37,0.50,2.87,1.25,-0.06,0.12,-0.15,-3.81,-84.12,83.75,-0.13,0.19,-0.81,3,1
1772394079.836069,3837969,0.22,-0.08,-0.03,-54.75,-80.44,258.25,-1.25,2.94,2.06,-0.04,0.09,-0.18,-3.81,-84.19,83.75,-0.06,0.06,-0.75,3,1
1772394079.876184,3838010,0.17,0.08,-0.04,-55.50,-80.37,258.06,-3.06,1.87,2.87,-0.13,0.11,-0.12,-3.81,-84.19,83.75,0.13,-1.31,-0.75,3,1
1772394079.916386,3838050,0.15,0.11,-0.06,-55.81,-80.37,257.87,-3.19,0.94,0.56,-0.10,0.07,-0.08,-3.75,-84.19,83.81,-0.37,-0.94,-1.00,3,1
1772394079.957515,3838091,0.14,0.11,-0.03,-55.81,-80.37,257.75,-2.19,-0.19,-0.19,-0.08,0.06,-0.08,-3.75,-84.19,83.81,-0.50,-1.37,-1.31,2,1
1772394079.999032,3838132,0.13,0.08,-0.01,-55.81,-80.31,257.75,-0.31,-0.31,-0.19,-0.05,0.06,-0.09,-3.69,-84.19,83.87,-0.19,-1.75,-1.06,2,1
1772394080.040377,3838174,0.13,0.10,0.02,-55.88,-80.31,257.75,0.88,0.37,-0.31,-0.07,0.04,-0.06,-3.62,-84.12,83.94,0.31,-1.87,-1.00,2,1
1772394080.079390,3838213,0.12,0.09,0.01,-56.06,-80.31,257.75,1.25,1.31,-0.31,-0.06,0.00,-0.07,-3.62,-84.06,83.94,1.00,-1.81,-0.69,2,1
1772394080.118334,3838252,0.15,0.09,0.01,-56.38,-80.37,257.81,1.75,2.00,-0.81,-0.03,0.04,-0.08,-3.62,-84.06,84.00,0.94,-1.37,-0.44,1,1
1772394080.159939,3838293,0.12,0.07,0.06,-56.69,-80.44,257.94,2.44,2.19,-1.75,-0.08,0.03,-0.09,-3.62,-84.00,84.06,0.81,-1.37,0.00,1,2
1772394080.200765,3838334,0.12,0.04,0.03,-57.06,-80.56,258.06,3.50,2.50,-1.69,-0.07,0.07,-0.14,-3.62,-84.00,84.06,1.25,-1.50,0.13,1,2
1772394080.242292,3838376,0.14,0.09,0.06,-57.44,-80.69,258.25,3.50,2.75,-1.75,-0.06,0.06,-0.13,-3.62,-83.94,84.12,1.56,-2.25,0.62,1,2
1772394080.282338,3838416,0.13,0.10,0.08,-57.88,-80.75,258.44,4.06,3.12,-2.56,-0.08,0.09,-0.21,-3.69,-83.81,84.19,1.87,-2.75,0.50,1,2
1772394080.321801,3838455,0.12,0.09,0.08,-58.31,-80.94,258.69,5.12,2.81,-3.69,-0.06,0.08,-0.23,-3.69,-83.75,84.19,1.19,-3.56,0.56,1,2
1772394080.362331,3838496,0.17,0.07,0.00,-58.69,-81.06,259.00,8.00,2.69,-3.75,-0.01,0.19,-0.38,-3.75,-83.69,84.19,0.37,-4.44,0.06,1,2
1772394080.402371,3838536,0.35,0.04,0.02,-58.88,-81.25,259.44,10.63,-1.06,-3.94,-0.03,0.14,-0.22,-3.75,-83.56,84.25,0.81,-8.44,-1.75,1,2
1772394080.443883,3838577,0.24,0.05,0.09,-58.19,-81.31,260.06,13.19,-5.06,-4.00,-0.02,0.14,-0.13,-3.69,-83.31,84.31,0.06,-9.00,-2.06,0,1
1772394080.484292,3838617,0.14,-0.08,0.10,-56.88,-81.31,260.69,14.50,-5.50,-5.31,-0.07,0.15,-0.12,-32.38,-83.06,84.37,-0.06,-9.56,-2.37,0,1
1772394080.523784,3838657,0.08,-0.12,0.11,-55.38,-81.37,261.50,13.06,-6.00,-6.50,-0.06,0.18,-0.14,-30.37,-82.81,84.50,-0.19,-10.50,-3.25,1,1
1772394080.564138,3838697,0.20,-0.18,0.01,-53.56,-81.44,262.19,10.81,-5.75,-7.56,-0.05,0.18,-0.16,-28.06,-82.50,84.62,-0.75,-13.81,-4.25,1,1
1772394080.603799,3838737,0.15,-0.25,0.03,-51.19,-81.56,262.87,7.37,-9.31,-7.50,-0.09,0.19,-0.10,-25.25,-82.06,84.75,-0.25,-16.25,-4.56,1,1
1772394080.645095,3838778,0.11,-0.27,0.02,-48.25,-81.50,263.44,3.50,-9.25,-4.19,0.00,0.05,0.01,-22.31,-81.50,84.94,-0.13,-17.94,-5.25,1,1
1772394080.687288,3838820,0.13,-0.25,-0.09,-46.00,-81.37,263.69,-0.88,-7.50,-1.06,-0.21,0.02,0.23,-19.69,-80.94,85.19,1.00,-16.37,-3.75,1,2
1772394080.728409,3838862,0.03,-0.22,0.00,-44.25,-81.25,263.56,-7.06,-5.69,1.00,-0.10,-0.05,0.20,-18.31,-80.56,85.31,0.13,-10.44,-1.81,2,2
1772394080.767373,3838901,0.00,-0.10,-0.06,-43.88,-81.12,263.19,-10.06,-0.50,2.94,-0.09,-0.03,0.26,-17.25,-80.19,85.37,-1.25,-7.00,-0.75,2,2
1772394080.806788,3838940,-0.02,-0.08,-0.12,-44.56,-81.12,262.69,-9.81,3.87,3.62,-0.14,-0.10,0.32,-16.75,-80.00,85.44,0.31,-2.19,0.69,2,2
1772394080.848426,3838982,0.03,-0.05,-0.20,-46.00,-81.25,262.19,-10.00,8.06,3.25,-0.16,-0.08,0.26,-16.81,-79.94,85.44,1.00,1.75,1.37,3,3
1772394080.889534,3839023,-0.01,-0.05,-0.24,-48.25,-81.44,261.69,-9.94,11.56,2.69,-0.25,-0.12,0.41,-17.31,-80.00,85.44,0.37,9.81,2.94,3,3
1772394080.930016,3839063,0.30,0.06,-0.39,-50.94,-81.81,261.31,-8.56,13.19,-0.62,-0.09,-0.02,0.04,-18.62,-80.37,85.31,-1.12,12.88,2.50,2,4
1772394080.969344,3839103,0.30,-0.12,-0.50,-52.56,-82.12,261.06,-7.50,7.37,-2.81,-0.30,-0.01,0.03,-19.81,-80.81,85.19,-2.81,10.69,0.62,2,4
1772394081.008299,3839142,0.15,-0.12,-0.32,-53.31,-82.31,260.81,-9.19,1.12,0.06,-0.28,-0.16,0.38,-20.69,-81.19,85.12,-3.12,16.00,1.37,3,4
1772394081.049622,3839183,0.20,-0.12,-0.23,-53.50,-82.31,260.37,-11.69,-0.50,2.87,0.02,0.02,-0.16,-23.62,-82.00,84.69,-10.06,24.87,3.94,3,5
1772394081.090548,3839224,0.46,-0.12,-0.22,-53.88,-82.19,259.69,-16.06,-1.50,6.25,-0.15,0.40,-0.15,-26.12,-82.62,84.19,-9.13,12.75,0.94,4,5
1772394081.130871,3839264,0.76,0.16,-0.17,-53.38,-81.81,258.75,-18.69,-7.62,8.44,0.15,0.66,-0.47,-27.62,-83.00,83.87,-3.62,5.50,0.44,3,5
1772394081.169993,3839303,0.71,0.47,-0.05,-51.31,-81.25,257.87,-15.44,-17.69,9.06,0.00,0.64,-0.24,-27.75,-83.00,83.94,5.62,-3.00,-0.94,4,5
1772394081.210012,3839343,0.35,0.60,0.25,-47.63,-80.50,257.31,-8.25,-25.75,4.37,0.00,0.53,-0.24,-29.81,-82.87,84.00,7.62,-7.37,-2.50,4,5
1772394081.251881,3839385,-0.04,0.45,0.48,-43.44,-79.75,257.31,-0.81,-25.75,-1.87,-0.15,0.36,0.15,-27.94,-82.37,84.31,6.62,-21.50,-3.75,4,5
1772394081.293221,3839427,-0.45,0.25,0.55,-40.06,-79.31,257.62,4.19,-14.38,-6.00,0.01,0.15,0.24,-23.69,-81.50,84.87,3.69,-21.44,-3.31,4,5
1772394081.332874,3839466,-0.22,-0.03,0.38,-38.63,-79.25,258.12,6.87,-1.75,-5.50,-0.27,0.04,0.39,-21.81,-80.94,85.06,7.25,-21.00,-0.25,4,6
1772394081.371663,3839505,-0.08,0.09,0.32,-38.38,-79.44,258.50,7.44,5.06,-4.56,-0.19,0.00,0.32,-21.12,-80.31,85.25,4.69,-7.31,5.81,4,5
1772394081.412247,3839546,0.00,0.03,0.28,-38.44,-79.75,259.00,8.88,8.25,-7.87,-0.10,-0.02,0.00,-22.31,-80.00,85.19,5.56,-3.12,7.12,4,5
1772394081.453418,3839587,-0.04,0.03,0.39,-38.25,-80.25,259.69,11.13,11.44,-11.50,-0.11,0.00,-0.14,-23.81,-79.81,85.06,2.81,-0.06,4.81,4,4
1772394081.493875,3839627,0.12,-0.07,0.30,-38.19,-80.94,260.62,14.25,16.12,-14.00,-0.09,-0.11,-0.41,-24.44,-79.81,85.00,0.44,0.00,0.44,4,4
1772394081.533683,3839667,0.11,-0.21,0.29,-38.06,-81.69,261.62,16.81,16.44,-12.81,-0.06,-0.10,-0.57,-24.06,-79.87,85.12,-2.19,0.37,-4.31,4,4
1772394081.572440,3839706,0.25,-0.39,0.19,-38.81,-82.37,262.69,19.75,16.37,-6.19,-0.09,-0.26,-0.42,-22.94,-80.19,85.31,-4.12,0.94,-7.37,4,3
1772394081.612545,3839746,0.25,-0.49,0.05,-41.13,-82.87,263.50,19.87,12.63,3.81,-0.06,-0.27,-0.30,-21.12,-80.50,85.50,-6.44,2.44,-7.25,4,3
1772394081.653778,3839787,0.19,-0.41,-0.09,-45.63,-82.94,263.75,15.44,9.06,14.94,-0.09,-0.20,-0.12,-19.25,-80.81,85.62,-4.56,2.19,-6.31,4,2
1772394081.695684,3839829,0.14,-0.16,-0.11,-51.88,-82.69,263.37,6.50,8.25,22.87,-0.20,-0.14,0.22,-17.50,-81.00,85.75,-3.62,1.00,-4.81,3,2
1772394081.734536,3839868,0.03,0.23,-0.16,-58.00,-82.12,262.44,-2.25,9.56,23.12,-0.18,0.07,0.33,-16.56,-81.06,85.69,-5.81,2.81,-3.37,3,1
1772394081.773535,3839907,0.25,0.31,-0.23,-62.81,-81.69,261.44,-8.81,11.50,15.25,-0.11,0.13,0.33,-16.19,-81.19,85.62,-4.37,4.62,-1.12,3,1
1772394081.814327,3839948,0.44,0.39,-0.22,-66.69,-81.44,260.50,-13.00,11.13,8.81,-0.07,0.23,0.23,-16.37,-81.25,85.50,-0.06,1.37,-1.12,3,1
1772394081.855596,3839989,0.40,0.38,-0.12,-69.62,-81.25,259.62,-11.88,8.19,2.94,-0.07,0.15,0.18,-16.69,-81.25,85.44,0.75,1.94,-0.50,3,1
1772394081.896318,3840030,0.16,0.26,0.04,-71.06,-81.25,259.19,-7.62,5.00,-0.62,-0.06,0.14,-0.03,-17.19,-81.37,85.44,1.06,4.50,1.06,2,1
1772394081.935314,3840069,0.13,0.13,0.01,-72.25,-81.31,259.00,-2.19,6.69,-1.19,-0.17,0.05,-0.02,-17.94,-81.50,85.37,-0.88,5.44,1.44,2,1
1772394081.974378,3840108,0.28,-0.02,-0.13,-73.69,-81.44,259.00,1.25,5.00,-1.56,-0.12,0.08,-0.11,-18.56,-81.69,85.25,-4.19,7.50,2.19,2,1
1772394082.015202,3840149,0.31,-0.13,-0.15,-74.19,-81.50,259.12,0.19,0.56,-1.75,0.00,0.16,-0.22,-19.69,-81.94,85.00,-4.00,6.00,1.62,1,0
1772394082.057272,3840190,0.34,-0.04,-0.12,-73.44,-81.56,259.12,-3.37,-4.12,-1.19,-0.06,0.09,-0.09,-20.44,-82.06,84.81,-1.19,-0.44,-1.00,1,0
1772394082.098043,3840231,0.23,0.02,0.04,-71.50,-81.50,259.00,-4.75,-8.00,-1.37,-0.11,-0.05,0.05,-19.81,-82.06,84.87,-2.06,-1.12,-2.06,1,0
1772394082.136652,3840270,0.06,0.00,0.04,-69.00,-81.50,258.94,-5.25,-8.81,-2.00,-0.10,-0.03,0.00,-19.37,-82.12,84.81,-2.94,2.50,-0.81,2,1
1772394082.175792,3840309,0.12,0.04,0.02,-66.94,-81.44,258.81,-6.00,-6.06,-0.62,-0.13,-0.01,-0.03,-19.19,-82.12,84.81,-0.94,-0.81,-1.37,1,0
1772394082.216456,3840350,0.22,0.16,0.05,-65.44,-81.31,258.62,-6.56,-5.25,0.56,-0.11,-0.06,0.00,-18.69,-82.19,84.81,-0.94,0.13,-1.06,1,0
1772394082.257978,3840391,0.16,0.20,0.07,-63.94,-81.19,258.37,-5.31,-5.56,0.25,-0.10,-0.06,-0.01,-18.62,-82.19,84.81,-1.50,2.69,0.50,1,1
1772394082.299991,3840433,0.03,0.17,0.13,-62.69,-81.06,258.25,-3.12,-4.44,-0.50,-0.10,0.01,-0.02,-19.25,-82.31,84.69,-1.50,4.25,1.31,2,1
1772394082.338871,3840472,0.00,0.09,0.14,-61.81,-81.00,258.12,-1.44,-2.25,0.19,-0.11,0.00,-0.01,-19.81,-82.44,84.62,-0.06,3.37,0.81,2,1
1772394082.378765,3840512,0.05,0.04,0.06,-61.56,-80.94,258.06,-0.75,-0.25,0.88,-0.11,0.02,-0.04,-20.37,-82.50,84.62,1.00,2.00,0.88,1,1
1772394082.419900,3840553,0.24,-0.01,0.00,-61.94,-80.94,258.00,-0.19,1.87,1.56,-0.03,0.11,-0.07,-20.56,-82.56,84.69,1.37,1.06,-0.37,2,2
1772394082.460172,3840594,0.23,0.08,-0.03,-62.50,-80.87,257.94,-0.50,0.06,1.50,-0.11,0.12,-0.04,-20.75,-82.62,84.69,1.56,0.75,-0.25,2,2
1772394082.502048,3840635,0.22,0.06,-0.03,-62.44,-80.81,257.94,-0.25,-2.31,-0.13,-0.06,0.10,-0.10,-21.06,-82.62,84.69,0.50,0.44,-0.56,2,1
1772394082.542908,3840676,0.15,0.07,0.06,-61.88,-80.81,257.94,0.19,-2.94,-0.88,-0.08,0.14,-0.02,-21.12,-82.62,84.69,0.25,-1.12,-0.19,1,2
1772394082.584431,3840718,0.13,0.06,0.14,-61.19,-80.75,258.00,1.37,-2.06,-1.69,-0.03,0.11,-0.03,-21.19,-82.56,84.69,1.19,-0.62,0.94,2,2
1772394082.623305,3840757,0.11,0.03,0.08,-60.56,-80.81,258.19,2.12,-0.81,-2.31,-0.07,0.09,-0.01,-21.56,-82.56,84.69,1.44,-0.62,1.37,2,2
1772394082.662128,3840796,0.14,0.02,0.04,-60.31,-80.87,258.37,2.06,0.00,-2.87,-0.08,0.06,0.00,-21.94,-82.50,84.69,1.69,-1.19,1.19,2,1
1772394082.703568,3840837,0.09,-0.04,0.01,-60.06,-80.94,258.50,2.12,0.56,-3.31,-0.10,0.04,-0.03,-22.31,-82.50,84.69,0.88,-0.37,1.06,1,1
1772394082.744713,3840878,0.09,-0.16,-0.01,-59.88,-81.12,258.75,1.87,1.62,-3.69,-0.12,0.02,0.00,-22.50,-82.44,84.69,-0.13,-0.69,0.75,1,1
1772394082.786207,3840920,0.09,-0.21,-0.01,-60.06,-81.25,258.87,0.44,2.62,-1.00,-0.09,0.02,0.00,-22.56,-82.44,84.69,0.13,-0.56,0.25,1,1
1772394082.827207,3840961,0.13,-0.16,-0.02,-60.63,-81.31,258.87,-0.81,2.94,0.19,-0.07,0.07,0.01,-22.62,-82.44,84.62,-1.00,0.94,0.56,1,1
1772394082.868323,3841002,0.18,-0.03,-0.04,-61.13,-81.37,258.81,-2.12,2.19,0.75,-0.08,0.10,0.01,-22.69,-82.44,84.62,-0.56,0.50,0.31,1,1
1772394082.909980,3841043,0.18,0.05,-0.04,-61.50,-81.37,258.69,-1.62,0.94,1.06,-0.07,0.12,-0.02,-22.75,-82.44,84.62,-0.06,-0.56,-0.31,2,2
1772394082.951103,3841085,0.21,0.11,-0.03,-61.63,-81.37,258.62,0.81,-0.44,0.13,-0.09,0.06,0.02,-22.69,-82.37,84.62,0.13,-1.06,-0.44,2,2
1772394082.992504,3841126,0.12,0.02,0.00,-61.56,-81.31,258.69,1.19,-1.31,-0.62,-0.11,0.09,0.05,-22.44,-82.37,84.62,0.06,-1.12,-0.62,2,2
1772394083.033880,3841168,0.13,0.00,0.00,-61.44,-81.37,258.75,1.06,0.25,-0.69,-0.07,0.07,0.01,-22.37,-82.37,84.62,0.31,0.06,-0.31,2,3
1772394083.076090,3841209,0.20,-0.02,-0.01,-61.56,-81.37,258.81,1.19,0.37,-0.31,-0.08,0.01,-0.05,-22.44,-82.37,84.62,0.75,0.00,-0.06,2,2
1772394083.115147,3841249,0.25,-0.04,-0.02,-61.50,-81.37,258.81,0.31,-1.19,0.06,-0.08,0.04,-0.09,-22.44,-82.37,84.69,0.69,0.13,-0.13,3,3
1772394083.157344,3841291,0.18,-0.01,-0.02,-61.06,-81.31,258.81,-0.88,-2.56,0.06,-0.08,0.07,-0.07,-22.44,-82.37,84.69,0.13,0.31,0.19,3,3
1772394083.198589,3841332,0.19,0.00,-0.02,-60.38,-81.25,258.81,-2.00,-2.87,-0.13,-0.07,0.06,-0.04,-22.44,-82.37,84.69,-0.06,0.13,0.06,3,3
1772394083.239126,3841372,0.20,0.00,-0.08,-59.50,-81.19,258.75,-2.50,-4.31,-0.31,-0.09,0.08,-0.01,-22.44,-82.37,84.69,-0.62,0.13,0.37,3,3
1772394083.279520,3841413,0.24,0.00,-0.10,-58.25,-81.12,258.62,-3.31,-5.81,-0.94,-0.13,0.09,0.00,-22.44,-82.37,84.62,-0.88,0.69,0.25,3,3
1772394083.321145,3841454,0.25,-0.04,-0.15,-56.63,-81.00,258.62,-3.62,-7.12,-1.00,-0.10,0.14,0.01,-22.37,-82.37,84.62,-0.13,-1.12,-0.19,3,3
1772394083.362549,3841496,0.29,-0.03,-0.19,-54.50,-80.87,258.56,-4.69,-10.31,-1.25,-0.13,0.10,0.09,-22.37,-82.31,84.62,-0.25,0.69,0.37,2,2
1772394083.404553,3841538,0.17,-0.03,-0.08,-51.56,-80.62,258.50,-6.50,-13.31,-3.25,-0.11,0.06,0.05,-22.37,-82.31,84.62,-0.25,-0.75,-0.37,2,2
1772394083.444216,3841578,0.04,0.04,0.15,-48.44,-80.44,258.44,-6.44,-11.75,-3.50,-0.05,0.08,0.00,-22.31,-82.31,84.62,-0.88,0.50,0.00,2,2
1772394083.483881,3841617,0.01,0.07,0.24,-45.88,-80.25,258.44,-4.87,-9.56,-3.25,-0.05,0.08,-0.02,-22.31,-82.31,84.56,-1.00,0.50,-0.06,2,2
1772394083.525979,3841659,0.00,0.07,0.25,-44.13,-80.06,258.44,-1.25,-4.56,-1.94,-0.11,0.10,-0.05,-22.31,-82.31,84.56,-0.13,0.44,-0.19,2,2
1772394083.565272,3841699,0.01,0.05,0.22,-43.25,-80.00,258.50,1.81,-1.37,-0.81,-0.09,0.09,-0.08,-22.31,-82.37,84.56,-0.06,0.44,-0.37,1,1
1772394083.607398,3841741,0.14,-0.01,0.13,-43.13,-79.94,258.62,2.94,1.31,0.06,-0.07,0.11,-0.08,-22.31,-82.37,84.56,-0.06,-0.06,-0.25,1,1
1772394083.649652,3841783,0.15,-0.10,0.07,-43.50,-80.00,258.69,1.37,1.81,-0.37,-0.09,0.09,-0.10,-22.31,-82.37,84.56,-0.75,0.62,-0.06,1,2
1772394083.690345,3841824,0.12,-0.06,0.04,-43.75,-80.06,258.69,-0.69,2.50,0.31,-0.08,0.06,-0.04,-22.37,-82.37,84.50,-0.94,1.19,0.75,2,2
1772394083.730762,3841864,0.12,0.00,0.01,-44.31,-80.12,258.62,-1.81,3.56,0.94,-0.10,0.10,0.00,-22.62,-82.44,84.50,-0.06,0.06,0.50,2,2
1772394083.772079,3841906,0.05,0.03,-0.01,-44.81,-80.25,258.50,-1.75,3.81,0.19,-0.12,0.13,0.03,-22.62,-82.44,84.50,-0.50,0.75,0.25,2,2
1772394083.813983,3841947,0.11,0.01,-0.05,-45.50,-80.37,258.44,-0.69,4.75,0.00,-0.08,0.12,0.01,-22.69,-82.44,84.50,0.50,-0.37,-0.31,2,2
1772394083.855991,3841990,0.10,0.02,-0.03,-46.31,-80.50,258.44,1.31,5.50,0.37,-0.09,0.13,-0.02,-22.56,-82.37,84.50,0.62,-1.00,-0.56,2,2
1772394083.896306,3842030,0.16,-0.04,-0.06,-47.44,-80.62,258.50,2.44,6.31,0.75,-0.08,0.08,-0.09,-22.50,-82.37,84.50,0.06,-0.56,-0.44,2,2
1772394083.935969,3842069,0.17,-0.12,-0.09,-48.75,-80.75,258.50,1.06,5.75,1.50,-0.08,0.02,-0.07,-22.62,-82.44,84.50,-0.56,1.50,0.62,2,2
1772394083.977491,3842111,0.13,-0.04,-0.12,-50.06,-80.87,258.37,-0.88,5.44,2.44,-0.14,0.06,-0.05,-22.81,-82.44,84.50,-0.88,1.00,0.50,2,2
1772394084.017056,3842150,0.23,-0.01,-0.12,-51.44,-80.94,258.25,-2.12,4.94,1.62,-0.09,0.17,-0.01,-23.00,-82.50,84.44,-1.75,1.81,0.69,2,2
1772394084.058437,3842192,0.28,0.04,-0.11,-52.44,-81.00,258.06,-2.31,2.69,0.56,-0.01,0.26,-0.02,-23.62,-82.56,84.31,-0.56,1.31,1.06,2,2
1772394084.099983,3842233,0.20,0.08,-0.05,-52.88,-81.06,258.00,-1.00,0.94,-0.31,-0.04,0.23,-0.12,-24.19,-82.56,84.25,1.31,-0.50,-0.25,2,2
1772394084.141558,3842275,0.21,0.07,-0.02,-52.94,-81.06,258.00,1.94,-0.13,-0.56,-0.12,0.10,-0.10,-24.00,-82.50,84.37,1.69,-2.75,-1.62,3,2
1772394084.180333,3842314,0.09,-0.08,0.02,-52.81,-81.06,258.19,3.75,-1.62,-0.69,-0.11,0.04,-0.01,-23.31,-82.44,84.44,0.44,-2.44,-1.56,3,2
1772394084.218901,3842352,0.03,-0.12,0.02,-52.75,-81.06,258.31,2.69,0.19,-0.37,-0.13,0.02,0.04,-22.81,-82.37,84.50,-0.94,-0.69,-0.75,2,2
1772394084.260367,3842394,0.07,-0.10,-0.05,-53.19,-81.12,258.31,0.13,3.69,0.56,-0.12,0.07,0.02,-22.56,-82.44,84.50,-0.44,-0.44,-0.69,2,2
1772394084.301881,3842435,0.18,0.04,-0.11,-54.31,-81.19,258.25,-0.81,4.62,1.19,-0.12,0.09,0.03,-22.44,-82.37,84.50,0.56,-0.13,-0.25,2,2
1772394084.343203,3842477,0.20,-0.02,-0.10,-55.19,-81.25,258.19,-0.25,3.37,0.50,-0.09,0.09,-0.03,-22.37,-82.44,84.50,-1.06,0.19,-0.81,2,2
1772394084.383644,3842517,0.29,-0.02,-0.08,-55.81,-81.31,258.19,0.13,2.00,0.56,-0.06,0.10,-0.06,-22.44,-82.44,84.50,-0.25,-0.44,-0.37,2,2
1772394084.424929,3842558,0.19,0.01,-0.06,-56.00,-81.31,258.19,0.13,0.69,0.44,-0.09,0.06,-0.08,-22.44,-82.44,84.50,0.31,-0.69,-0.62,2,2
1772394084.466366,3842600,0.14,0.03,-0.05,-56.13,-81.31,258.12,0.50,0.50,0.81,-0.11,0.04,-0.05,-22.19,-82.44,84.50,0.31,-0.62,-0.94,2,2
1772394084.507433,3842641,0.17,0.02,-0.05,-56.31,-81.25,258.12,0.31,-0.19,0.75,-0.09,0.05,-0.05,-22.19,-82.44,84.50,-0.50,0.00,-0.44,1,2
1772394084.548841,3842682,0.16,0.00,-0.01,-56.38,-81.25,258.12,-0.75,-0.25,0.50,-0.07,0.12,-0.02,-22.25,-82.44,84.50,-0.06,-0.44,-0.06,1,2
1772394084.589900,3842723,0.10,0.03,-0.01,-56.31,-81.25,258.06,-1.06,0.06,-0.50,-0.12,0.07,0.02,-22.25,-82.44,84.50,-0.31,-0.31,-0.06,1,2
1772394084.631296,3842765,0.13,0.06,-0.03,-56.31,-81.25,258.06,0.00,0.75,-0.06,-0.11,0.08,0.04,-22.31,-82.44,84.50,-0.19,0.06,0.19,1,2
1772394084.670236,3842804,0.15,0.03,-0.04,-56.56,-81.25,258.06,0.62,1.12,-0.37,-0.08,0.09,-0.04,-22.37,-82.44,84.50,0.00,-0.13,0.37,1,2
1772394084.712110,3842845,0.19,0.01,-0.06,-56.56,-81.31,258.06,0.31,0.88,-1.00,-0.08,0.10,-0.05,-22.44,-82.44,84.50,-0.31,-0.13,0.31,2,2
1772394084.753720,3842887,0.17,0.00,-0.06,-56.44,-81.37,258.12,0.62,0.13,-1.06,-0.08,0.08,-0.08,-22.50,-82.44,84.44,-0.13,0.25,0.13,2,3
1772394084.795186,3842928,0.16,-0.01,-0.05,-56.31,-81.37,258.19,1.37,0.00,-1.12,-0.08,0.11,-0.02,-22.62,-82.44,84.44,-0.06,-0.69,-0.25,2,3
1772394084.835547,3842969,0.11,-0.05,-0.03,-56.25,-81.44,258.25,0.94,-0.31,-0.75,-0.09,0.06,0.00,-22.56,-82.44,84.44,-0.06,-0.50,-0.31,3,3
1772394084.877235,3843010,0.11,-0.06,-0.05,-56.31,-81.44,258.31,0.37,0.88,-0.13,-0.11,0.09,-0.01,-22.62,-82.37,84.44,0.00,-0.13,-0.19,3,3
1772394084.918435,3843052,0.18,-0.04,-0.09,-56.56,-81.44,258.31,-0.06,1.12,0.19,-0.09,0.09,-0.05,-22.69,-82.44,84.44,0.06,0.19,-0.06,3,2
1772394084.960002,3843093,0.19,0.01,-0.07,-56.63,-81.44,258.31,-0.56,-0.44,0.31,-0.08,0.09,-0.04,-22.75,-82.44,84.44,0.13,0.13,-0.13,3,2
1772394085.001464,3843135,0.19,0.02,-0.07,-56.50,-81.44,258.31,-0.13,-1.31,-0.19,-0.07,0.11,-0.07,-22.87,-82.44,84.44,-0.13,-0.13,-0.25,3,2
1772394085.041128,3843174,0.13,0.00,-0.04,-56.19,-81.44,258.31,0.31,-1.62,-0.75,-0.11,0.09,-0.03,-22.94,-82.44,84.44,-0.19,-0.19,0.06,2,2
1772394085.082389,3843216,0.14,0.02,-0.03,-55.69,-81.44,258.31,0.25,-1.75,-0.88,-0.07,0.09,-0.02,-23.00,-82.44,84.44,-0.19,-0.25,-0.13,3,2
1772394085.121891,3843255,0.15,-0.01,-0.03,-55.25,-81.37,258.37,0.69,-1.31,-1.06,-0.09,0.08,-0.03,-23.06,-82.44,84.37,-0.06,-0.50,-0.19,3,2
1772394085.163284,3843297,0.06,0.00,0.00,-54.81,-81.37,258.44,0.94,-1.06,-0.75,-0.10,0.09,0.00,-23.00,-82.37,84.37,-0.25,-0.25,0.06,3,2
1772394085.205468,3843339,0.14,-0.10,-0.04,-54.63,-81.44,258.50,0.56,-0.56,-0.56,-0.09,0.08,-0.02,-23.00,-82.37,84.37,-0.50,0.19,-0.19,3,2
1772394085.246522,3843380,0.15,0.00,-0.06,-54.63,-81.44,258.50,0.13,-0.13,-0.19,-0.13,0.10,-0.01,-23.00,-82.37,84.37,-0.19,0.94,0.25,2,2
1772394085.287459,3843421,0.15,-0.04,-0.05,-54.38,-81.44,258.56,0.13,-1.31,-0.94,-0.10,0.10,-0.06,-23.06,-82.44,84.37,-0.56,0.37,-0.19,2,2
1772394085.329240,3843462,0.20,-0.01,-0.02,-54.06,-81.37,258.56,0.37,-1.44,-0.06,-0.10,0.08,-0.02,-23.06,-82.44,84.37,-0.44,-0.19,-0.19,3,2
1772394085.370358,3843504,0.09,-0.03,0.03,-53.75,-81.37,258.56,0.19,-1.00,-0.44,-0.07,0.09,-0.02,-23.06,-82.44,84.37,-0.25,0.06,-0.19,3,2
1772394085.411823,3843546,0.09,-0.01,0.01,-53.88,-81.37,258.56,0.19,1.06,0.50,-0.10,0.05,-0.05,-23.06,-82.44,84.37,0.19,0.25,-0.06,3,2
1772394085.452040,3843585,0.14,-0.01,-0.04,-54.13,-81.37,258.56,0.06,0.62,0.62,-0.10,0.10,-0.06,-23.06,-82.44,84.37,-0.25,0.19,0.13,3,2
1772394085.493256,3843627,0.21,0.00,-0.11,-54.25,-81.37,258.56,-0.88,0.06,0.25,-0.06,0.11,-0.07,-23.06,-82.44,84.37,-0.31,-0.25,0.00,3,2
1772394085.535567,3843669,0.25,0.01,-0.13,-54.19,-81.37,258.50,-1.25,-1.25,-1.25,-0.05,0.09,-0.02,-23.06,-82.44,84.37,-0.62,-0.50,0.06,2,2
1772394085.574464,3843708,0.21,0.00,-0.16,-53.25,-81.37,258.50,-1.37,-3.87,-1.06,-0.08,0.10,-0.05,-23.00,-82.44,84.37,-0.44,-0.56,0.00,3,2
1772394085.616137,3843749,0.16,0.02,-0.10,-52.38,-81.31,258.50,-1.00,-5.19,-1.00,-0.11,0.07,-0.01,-23.00,-82.37,84.37,-0.06,-0.19,-0.06,3,2
1772394085.657915,3843791,0.19,-0.02,-0.06,-50.69,-81.19,258.62,-0.25,-5.62,-1.75,-0.10,0.13,-0.02,-23.00,-82.37,84.37,-0.44,0.19,-0.06,3,2
1772394085.698677,3843832,0.15,-0.02,-0.01,-49.25,-81.12,258.69,-0.13,-6.25,-1.81,-0.09,0.09,0.00,-23.00,-82.37,84.37,-0.19,0.00,-0.31,2,2
1772394085.738940,3843872,0.08,-0.05,0.05,-47.75,-81.00,258.81,0.31,-6.44,-1.62,-0.06,0.08,-0.06,-23.00,-82.37,84.37,0.13,-0.56,-0.56,2,2
1772394085.780648,3843914,0.08,-0.06,0.06,-46.63,-80.87,258.87,-0.06,-4.37,-0.94,-0.08,0.07,-0.03,-22.75,-82.37,84.37,0.00,-0.50,-0.81,2,2
1772394085.822201,3843955,0.07,-0.08,0.06,-45.94,-80.81,258.87,-1.12,-2.69,0.13,-0.08,0.07,-0.06,-22.69,-82.37,84.44,-0.37,0.00,-0.37,1,1
1772394085.863440,3843997,0.10,-0.02,0.11,-45.63,-80.75,258.81,-1.25,-1.00,1.31,-0.09,0.07,-0.05,-22.69,-82.37,84.44,-0.31,-0.19,0.00,1,1
1772394085.902121,3844036,0.07,0.00,0.13,-45.75,-80.69,258.69,-1.06,0.25,1.50,-0.09,0.11,-0.06,-22.69,-82.37,84.44,0.00,0.06,0.00,1,1
1772394085.941182,3844075,0.09,0.11,0.11,-46.06,-80.62,258.62,-0.56,1.50,1.31,-0.09,0.10,-0.02,-22.69,-82.37,84.44,-0.13,-0.13,0.00,1,1
1772394085.982640,3844116,0.08,0.05,0.10,-46.63,-80.69,258.56,0.31,3.06,0.62,-0.09,0.10,-0.02,-22.69,-82.37,84.44,-0.25,0.00,-0.31,1,1
1772394086.023486,3844157,0.10,0.02,-0.01,-47.25,-80.81,258.56,1.06,3.94,-0.19,-0.09,0.09,-0.04,-22.69,-82.37,84.44,-0.75,0.00,-0.25,2,2
1772394086.065207,3844199,0.13,0.02,0.01,-48.00,-80.87,258.62,1.69,4.31,-0.06,-0.08,0.07,-0.04,-22.62,-82.37,84.37,-0.25,0.13,0.00,2,2
1772394086.105254,3844239,0.10,0.00,-0.07,-49.00,-81.00,258.69,1.87,5.06,0.56,-0.15,0.04,-0.06,-22.62,-82.37,84.37,0.31,-0.06,0.00,2,2
1772394086.145580,3844279,0.13,-0.02,-0.06,-50.19,-81.12,258.69,2.25,5.87,0.31,-0.12,0.12,-0.01,-22.62,-82.37,84.37,-1.31,0.31,-0.31,2,2
1772394086.186362,3844320,0.19,-0.04,-0.14,-51.50,-81.31,258.75,1.94,6.12,0.25,-0.10,0.18,-0.01,-22.62,-82.44,84.31,-0.88,1.06,0.00,2,2
1772394086.225316,3844359,0.27,-0.08,-0.15,-52.63,-81.44,258.81,1.19,3.87,-0.56,-0.06,0.12,-0.15,-22.81,-82.44,84.31,0.00,0.88,0.06,2,2
1772394086.266743,3844401,0.30,0.00,-0.14,-53.31,-81.50,258.81,0.25,1.06,1.06,-0.07,0.07,-0.16,-22.81,-82.44,84.31,1.31,-0.88,-0.13,2,1
1772394086.308548,3844442,0.21,0.03,-0.10,-53.38,-81.44,258.75,-0.19,-1.81,0.62,-0.09,0.06,-0.07,-22.69,-82.44,84.37,0.37,-0.88,-0.13,2,1
1772394086.350580,3844484,0.09,0.04,-0.05,-52.81,-81.37,258.75,-0.75,-2.19,-0.50,-0.13,0.05,0.02,-22.62,-82.37,84.37,-0.37,-0.50,-0.19,2,1
1772394086.391447,3844525,0.05,0.03,-0.01,-52.38,-81.37,258.75,-0.37,-0.94,-1.00,-0.11,0.06,-0.02,-22.62,-82.37,84.37,-0.62,0.56,-0.06,2,2
1772394086.433088,3844567,0.13,-0.02,-0.07,-52.31,-81.37,258.81,0.62,0.69,-0.44,-0.09,0.08,-0.05,-22.56,-82.37,84.31,-0.19,-0.06,0.00,1,1
1772394086.474460,3844608,0.18,-0.01,-0.11,-52.31,-81.37,258.81,0.37,0.00,0.13,-0.09,0.15,-0.06,-22.56,-82.37,84.31,-0.06,0.13,0.19,1,2
1772394086.516047,3844649,0.13,-0.02,-0.05,-52.31,-81.37,258.81,-0.50,-0.50,-0.19,-0.08,0.14,-0.09,-22.56,-82.37,84.31,0.19,0.19,0.13,1,2
1772394086.557029,3844690,0.20,0.02,0.00,-52.19,-81.37,258.81,-0.25,-0.69,-0.62,-0.09,0.17,-0.13,-22.56,-82.37,84.31,-0.19,0.44,0.50,2,2
1772394086.598541,3844732,0.22,-0.04,-0.03,-51.94,-81.37,258.81,0.37,-0.81,-1.06,-0.08,0.15,-0.12,-22.56,-82.37,84.31,-0.44,0.31,0.06,1,2
1772394086.640510,3844774,0.10,-0.04,0.02,-51.44,-81.37,258.94,0.75,-1.06,-0.94,-0.08,0.14,-0.06,-22.56,-82.37,84.31,-0.31,0.19,-0.13,2,2
1772394086.679999,3844813,0.10,-0.08,0.03,-51.25,-81.37,258.94,1.00,-0.50,-0.37,-0.11,0.14,-0.05,-22.44,-82.37,84.31,-0.19,-0.50,-0.56,2,2
1772394086.721724,3844855,0.09,-0.10,0.00,-51.31,-81.37,259.00,0.25,0.56,0.50,-0.12,0.10,-0.06,-22.31,-82.37,84.37,-0.44,-0.37,-0.44,2,2
1772394086.763258,3844897,0.14,-0.06,-0.04,-51.69,-81.44,258.94,-1.06,2.00,0.94,-0.07,0.10,-0.08,-22.31,-82.37,84.37,-0.44,0.44,-0.25,1,2
1772394086.803607,3844937,0.20,0.00,-0.06,-52.25,-81.44,258.87,-1.44,1.69,1.00,-0.07,0.12,-0.08,-22.31,-82.37,84.37,-0.44,-0.06,-0.31,1,2
1772394086.843889,3844977,0.15,0.05,-0.06,-52.56,-81.44,258.75,-0.75,0.94,0.88,-0.06,0.13,-0.06,-22.31,-82.37,84.37,-0.44,-0.31,-0.31,1,2
1772394086.885642,3845019,0.16,0.04,-0.08,-52.81,-81.44,258.75,0.00,0.56,0.44,-0.11,0.13,-0.07,-22.25,-82.37,84.37,-0.19,-0.56,-0.37,1,1
1772394086.926730,3845060,0.15,0.04,-0.05,-52.81,-81.44,258.75,0.31,0.44,-0.06,-0.09,0.11,-0.05,-22.25,-82.37,84.37,-0.19,-0.19,-0.37,1,1
1772394086.967931,3845101,0.13,0.00,-0.05,-52.81,-81.44,258.75,0.31,0.31,-0.06,-0.12,0.07,-0.08,-22.25,-82.37,84.37,0.06,-0.50,-0.44,1,2
1772394087.009381,3845143,0.16,0.01,-0.04,-52.81,-81.44,258.75,0.19,0.37,-0.06,-0.09,0.08,-0.10,-22.25,-82.37,84.37,-0.31,-0.31,-0.37,1,2
1772394087.050752,3845184,0.13,-0.01,-0.05,-52.81,-81.44,258.75,0.19,0.25,-0.06,-0.11,0.11,-0.01,-22.25,-82.37,84.37,-0.25,-0.37,-0.13,1,2
1772394087.091546,3845225,0.11,-0.04,-0.02,-52.81,-81.44,258.75,-0.06,0.50,-0.25,-0.03,0.05,-0.06,-22.25,-82.37,84.37,-0.44,0.31,-0.06,1,2
1772394087.130303,3845264,0.16,0.05,-0.08,-52.94,-81.44,258.75,-0.56,0.56,0.69,-0.11,0.12,-0.07,-22.25,-82.37,84.37,0.19,-0.13,-0.25,1,2
1772394087.171548,3845305,0.17,0.05,-0.09,-52.88,-81.44,258.75,-0.25,-0.56,-0.69,-0.08,0.14,-0.11,-22.31,-82.37,84.37,-0.62,1.25,0.37,2,2
1772394087.213664,3845347,0.17,-0.01,-0.02,-52.63,-81.44,258.75,-0.06,-1.00,-0.06,-0.07,0.14,-0.10,-22.31,-82.37,84.31,-0.62,0.00,-0.37,2,3
1772394087.254804,3845388,0.16,0.00,0.00,-52.56,-81.44,258.75,0.25,-0.44,-0.37,-0.08,0.09,-0.07,-22.31,-82.37,84.31,-0.31,0.31,0.06,2,3
1772394087.295565,3845429,0.12,-0.01,-0.01,-52.56,-81.44,258.75,0.00,0.25,-0.44,-0.12,0.08,-0.08,-22.31,-82.37,84.31,0.13,-0.25,-0.37,2,3
1772394087.337348,3845471,0.12,0.00,-0.04,-52.56,-81.44,258.75,-0.06,0.25,0.19,-0.11,0.08,-0.03,-22.31,-82.37,84.31,0.13,-0.62,-0.19,2,3
1772394087.378577,3845512,0.19,-0.01,-0.07,-52.63,-81.44,258.75,-0.06,0.37,-0.19,-0.08,0.11,-0.06,-22.31,-82.37,84.31,-0.44,0.00,-0.06,2,2
1772394087.419604,3845553,0.15,0.01,-0.04,-52.75,-81.44,258.75,-0.44,0.75,-0.13,-0.08,0.13,-0.06,-22.31,-82.37,84.31,-0.06,-0.06,0.00,3,2
1772394087.460269,3845594,0.14,-0.02,-0.05,-52.81,-81.50,258.75,0.13,0.13,-0.75,-0.10,0.10,-0.08,-22.31,-82.37,84.31,-0.13,-0.06,-0.25,2,2
1772394087.501275,3845635,0.16,0.00,-0.05,-52.75,-81.50,258.81,0.75,0.25,-0.06,-0.07,0.13,-0.08,-22.31,-82.37,84.31,0.19,-0.06,0.06,2,2
1772394087.542986,3845677,0.17,-0.03,-0.08,-52.75,-81.50,258.81,0.44,0.50,-0.69,-0.07,0.15,-0.07,-22.31,-82.37,84.31,-0.19,0.13,0.25,2,2
1772394087.582241,3845715,0.13,-0.02,-0.07,-52.56,-81.50,258.87,-0.06,0.31,-0.75,-0.10,0.15,-0.09,-22.31,-82.37,84.31,-0.19,0.31,-0.06,2,2
1772394087.623204,3845756,0.16,-0.06,-0.07,-52.50,-81.50,258.87,0.37,-0.19,-0.56,-0.09,0.14,-0.09,-22.31,-82.37,84.31,-0.31,-0.50,-0.44,1,2
1772394087.664385,3845798,0.13,-0.06,-0.04,-52.44,-81.50,258.87,0.62,-0.44,0.00,-0.08,0.14,-0.07,-22.31,-82.37,84.31,-0.06,-0.06,-0.37,1,2
1772394087.706140,3845840,0.13,-0.05,-0.04,-52.44,-81.50,258.87,-0.13,0.06,0.13,-0.11,0.10,-0.07,-22.31,-82.37,84.31,-0.31,0.00,-0.13,1,2
1772394087.747112,3845880,0.14,-0.03,-0.06,-52.44,-81.50,258.87,-1.00,-0.06,0.62,-0.08,0.13,-0.08,-22.31,-82.37,84.31,-0.19,0.00,-0.25,1,2
1772394087.788657,3845922,0.18,0.11,-0.05,-52.38,-81.50,258.81,-0.50,-1.81,0.75,-0.07,0.13,-0.08,-22.31,-82.37,84.31,-0.31,0.00,-0.19,1,2
1772394087.830120,3845963,0.14,0.06,-0.02,-51.81,-81.44,258.81,0.37,-2.12,-0.06,-0.10,0.13,-0.07,-22.31,-82.37,84.31,-0.37,-0.19,-0.06,1,2
1772394087.870647,3846004,0.18,0.00,-0.05,-51.56,-81.37,258.81,-0.37,-0.44,-0.62,-0.08,0.12,-0.08,-22.31,-82.37,84.31,0.00,-0.06,-0.44,2,2
1772394087.912320,3846045,0.12,0.01,-0.03,-51.44,-81.37,258.87,-0.13,0.62,-0.56,-0.11,0.09,-0.09,-22.31,-82.37,84.31,-0.31,-0.25,-0.13,2,2
1772394087.952561,3846086,0.15,0.01,-0.07,-51.56,-81.44,258.87,0.44,0.50,0.06,-0.09,0.13,-0.08,-22.31,-82.37,84.31,0.06,0.06,0.00,3,3
1772394087.993504,3846127,0.14,0.00,-0.04,-51.56,-81.44,258.87,0.06,0.06,0.00,-0.10,0.16,-0.08,-22.31,-82.37,84.31,0.00,-0.19,-0.06,3,4
1772394088.032651,3846166,0.12,0.00,-0.06,-51.56,-81.44,258.87,-0.37,-0.06,0.06,-0.11,0.09,-0.03,-22.31,-82.37,84.31,0.19,-0.25,0.06,3,4
1772394088.074040,3846207,0.09,-0.05,-0.07,-51.56,-81.44,258.87,-0.06,0.25,-0.31,-0.05,0.12,-0.10,-22.31,-82.37,84.31,-0.37,0.44,-0.13,3,4
1772394088.114925,3846249,0.14,0.07,-0.10,-51.69,-81.44,258.87,-0.19,0.69,0.44,-0.14,0.12,-0.09,-22.31,-82.37,84.31,0.31,0.19,0.00,4,4
1772394088.157208,3846291,0.15,-0.02,-0.08,-51.63,-81.44,258.87,0.06,-0.50,-1.25,-0.10,0.13,-0.10,-22.37,-82.37,84.31,-0.31,0.50,-0.19,4,4
1772394088.198093,3846332,0.20,0.00,-0.05,-51.25,-81.44,258.94,0.13,-0.81,-0.62,-0.08,0.12,-0.07,-22.37,-82.37,84.31,0.06,-0.56,-0.06,4,4
1772394088.239819,3846373,0.16,-0.04,-0.05,-51.06,-81.44,258.94,-0.13,-1.19,-0.56,-0.07,0.12,-0.09,-22.37,-82.37,84.31,0.00,0.19,0.00,4,4
1772394088.281383,3846415,0.15,-0.03,-0.07,-51.00,-81.44,258.94,-0.25,-0.13,-0.37,-0.10,0.09,-0.07,-22.37,-82.37,84.31,0.00,-0.13,-0.25,3,3
1772394088.322667,3846456,0.11,0.02,-0.03,-50.88,-81.44,258.94,-0.31,-1.12,0.13,-0.10,0.10,-0.06,-22.31,-82.37,84.31,-0.06,-0.62,-0.06,4,3
1772394088.363200,3846497,0.07,0.00,-0.01,-50.75,-81.37,258.94,-0.44,-1.19,0.25,-0.10,0.11,-0.10,-22.31,-82.37,84.31,-0.13,-0.56,0.19,3,2
1772394088.404495,3846538,0.13,0.04,-0.03,-50.56,-81.37,258.94,-0.50,-0.13,-0.25,-0.05,0.14,-0.06,-22.31,-82.37,84.31,-0.13,0.25,0.37,3,2
1772394088.445638,3846579,0.10,0.02,-0.04,-50.56,-81.37,258.94,0.06,0.50,-0.44,-0.09,0.13,-0.07,-22.31,-82.37,84.31,0.25,0.44,-0.13,2,2
1772394088.484625,3846618,0.15,-0.02,-0.06,-50.75,-81.37,258.94,0.81,0.56,-0.13,-0.11,0.11,-0.08,-22.31,-82.37,84.31,-0.06,-0.13,0.00,2,2
1772394088.525905,3846660,0.18,-0.03,-0.10,-50.81,-81.37,258.94,0.19,0.56,-0.37,-0.07,0.17,-0.06,-22.31,-82.37,84.31,0.00,-0.31,0.00,2,2
1772394088.567177,3846701,0.15,-0.02,-0.10,-50.88,-81.37,258.94,0.00,0.06,-0.56,-0.12,0.13,-0.06,-22.31,-82.37,84.31,0.06,-0.19,-0.37,2,2
1772394088.609189,3846743,0.17,-0.01,-0.07,-50.75,-81.37,258.94,0.88,-0.75,0.00,-0.09,0.12,-0.08,-22.31,-82.37,84.31,0.19,-0.25,-0.44,1,2
1772394088.650165,3846784,0.13,-0.04,-0.06,-50.69,-81.37,259.00,0.94,-0.75,-0.06,-0.09,0.08,-0.04,-22.31,-82.37,84.31,0.00,-0.25,-0.50,2,2
1772394088.692016,3846826,0.14,0.01,-0.06,-50.50,-81.37,259.00,0.50,-0.62,0.13,-0.10,0.08,-0.05,-22.25,-82.37,84.31,0.06,-0.19,-0.44,2,2
1772394088.733243,3846867,0.11,0.00,-0.05,-50.50,-81.37,259.00,0.81,-0.13,0.19,-0.08,0.06,-0.06,-22.19,-82.37,84.37,0.19,-0.31,-0.25,2,2
1772394088.774005,3846908,0.14,0.01,-0.05,-50.50,-81.37,259.06,0.62,-0.06,0.25,-0.10,0.09,-0.04,-22.19,-82.37,84.37,0.56,-0.25,-0.06,2,3
1772394088.814871,3846949,0.16,0.01,-0.01,-50.50,-81.37,259.06,0.19,0.13,0.31,-0.09,0.09,-0.08,-22.19,-82.37,84.37,0.31,-0.13,0.00,2,2
1772394088.855744,3846990,0.17,0.02,-0.05,-50.50,-81.37,259.06,0.13,0.13,-0.25,-0.09,0.10,-0.06,-22.19,-82.37,84.37,0.19,0.50,0.56,2,3
1772394088.896821,3847030,0.18,0.00,-0.02,-50.50,-81.37,259.06,0.13,-0.44,-0.37,-0.07,0.12,-0.08,-22.19,-82.37,84.37,0.44,0.06,0.13,2,3
1772394088.936197,3847070,0.13,-0.01,-0.02,-50.50,-81.37,259.06,0.69,-0.44,-0.31,-0.10,0.09,-0.04,-22.12,-82.31,84.37,0.50,-0.62,-0.31,2,3
1772394088.977171,3847111,0.09,-0.02,0.00,-50.50,-81.37,259.06,1.19,0.31,-0.56,-0.06,0.06,-0.07,-22.12,-82.31,84.37,0.06,0.50,0.06,2,3
1772394089.018295,3847152,0.14,-0.02,-0.01,-50.69,-81.37,259.12,0.37,0.94,0.56,-0.10,0.12,-0.09,-22.12,-82.37,84.37,0.50,0.37,0.50,2,3
1772394089.059920,3847194,0.14,0.05,-0.05,-50.81,-81.37,259.12,0.13,0.75,-0.88,-0.09,0.13,-0.10,-22.37,-82.37,84.31,0.00,1.19,0.94,2,2
1772394089.101265,3847235,0.16,0.01,-0.02,-50.69,-81.44,259.19,0.88,0.31,-0.69,-0.05,0.13,-0.11,-22.50,-82.37,84.31,0.37,-0.13,0.19,1,2
1772394089.143335,3847277,0.18,-0.03,-0.06,-50.69,-81.44,259.25,2.00,0.31,-0.81,-0.07,0.10,-0.13,-22.50,-82.37,84.31,0.19,-0.31,0.25,1,2
1772394089.185049,3847318,0.16,-0.10,-0.08,-50.63,-81.44,259.31,0.81,0.13,-0.50,-0.09,0.05,-0.07,-22.44,-82.31,84.31,0.62,-0.75,-0.25,1,1
1772394089.226115,3847360,0.10,-0.06,-0.08,-50.63,-81.44,259.31,-0.69,0.06,0.56,-0.14,0.07,-0.09,-22.44,-82.31,84.31,0.44,-0.06,0.13,1,1
1772394089.266920,3847401,0.10,-0.07,-0.09,-50.63,-81.44,259.31,-1.19,-0.13,0.44,-0.11,0.10,-0.06,-22.44,-82.31,84.31,-0.75,0.06,0.50,0,1
1772394089.306180,3847440,0.16,-0.01,-0.05,-50.63,-81.44,259.19,-1.94,-0.06,0.37,-0.07,0.17,-0.04,-22.50,-82.31,84.31,-0.69,0.62,0.69,0,1
1772394089.347530,3847481,0.13,0.01,-0.04,-50.56,-81.44,259.19,-1.31,0.19,0.62,-0.11,0.12,-0.01,-22.69,-82.31,84.31,0.88,0.06,0.44,0,1
1772394089.387253,3847521,0.17,0.11,-0.03,-50.63,-81.44,259.12,0.00,-0.13,0.06,-0.08,0.15,-0.06,-22.87,-82.37,84.31,0.37,1.25,0.62,0,1
1772394089.427888,3847561,0.16,0.01,-0.07,-50.50,-81.44,259.12,0.50,-0.13,-1.81,-0.06,0.21,-0.06,-23.12,-82.37,84.25,-1.44,1.37,0.81,0,1
1772394089.467006,3847600,0.17,-0.06,-0.06,-50.13,-81.50,259.19,0.69,-0.37,-2.06,-0.07,0.17,-0.10,-23.62,-82.37,84.19,-0.50,0.62,-0.19,0,1
1772394089.506100,3847639,0.12,-0.11,-0.03,-49.81,-81.56,259.31,1.31,-0.75,-1.69,-0.03,0.18,-0.15,-23.87,-82.44,84.12,-2.12,2.31,0.19,1,1
1772394089.546807,3847681,0.15,-0.14,0.00,-49.63,-81.56,259.37,1.19,-1.12,1.12,-0.02,0.11,-0.19,-24.25,-82.50,84.06,0.81,0.31,-0.06,1,1
1772394089.587417,3847721,0.18,-0.03,0.03,-49.69,-81.44,259.37,-0.06,-1.69,2.31,-0.13,0.05,-0.07,-24.31,-82.44,84.19,2.50,-2.87,-0.69,0,1
1772394089.627438,3847761,0.04,0.08,0.10,-49.69,-81.37,259.31,-0.25,-0.37,0.56,-0.13,0.03,0.00,-23.75,-82.37,84.25,0.00,-1.81,-1.37,1,1
1772394089.666912,3847800,0.06,-0.04,0.05,-49.88,-81.37,259.31,-0.06,2.62,-0.62,-0.08,0.05,-0.02,-23.31,-82.37,84.25,-1.75,0.25,-1.12,1,1
1772394089.705933,3847839,0.23,-0.09,-0.07,-50.50,-81.50,259.31,-0.31,3.87,0.25,-0.09,0.10,-0.06,-23.12,-82.37,84.25,-1.12,0.19,-0.37,1,1
1772394089.747111,3847881,0.17,-0.03,-0.10,-51.25,-81.56,259.25,-1.06,2.75,1.69,-0.09,0.08,-0.04,-23.19,-82.37,84.19,0.37,0.00,-0.19,1,1
1772394089.787787,3847921,0.22,0.05,-0.14,-52.00,-81.56,259.12,-1.00,2.19,1.37,-0.11,0.08,-0.06,-23.31,-82.37,84.19,0.88,-0.37,-0.13,2,1
1772394089.828199,3847962,0.29,0.10,-0.12,-52.50,-81.56,259.06,-0.31,1.19,-0.13,-0.09,0.14,-0.11,-23.50,-82.44,84.19,0.00,-0.31,0.13,1,1
1772394089.868620,3848002,0.21,0.08,-0.09,-52.44,-81.56,259.06,0.13,-0.81,-1.37,-0.06,0.11,-0.07,-23.62,-82.44,84.19,-0.19,0.06,0.00,2,2
1772394089.907747,3848041,0.13,0.02,-0.03,-52.00,-81.62,259.12,1.12,-0.56,-1.50,-0.07,0.01,-0.05,-23.69,-82.44,84.19,-0.31,0.19,-0.25,2,2
1772394089.948505,3848082,0.12,-0.06,-0.03,-51.94,-81.62,259.19,1.12,-0.44,0.37,-0.16,0.02,-0.01,-23.69,-82.44,84.19,0.56,0.19,0.00,2,2
1772394089.988820,3848123,0.18,-0.02,-0.07,-52.00,-81.62,259.25,0.06,0.25,0.06,-0.10,0.06,-0.06,-23.87,-82.44,84.19,-0.19,1.50,0.50,2,2
1772394090.029093,3848163,0.16,-0.03,-0.05,-52.00,-81.62,259.19,-1.37,0.81,0.44,-0.09,0.09,-0.06,-24.06,-82.50,84.19,-0.44,0.50,0.69,2,2
1772394090.067902,3848202,0.19,0.02,-0.02,-52.06,-81.62,259.12,-1.69,0.00,0.69,-0.05,0.10,-0.14,-24.31,-82.50,84.19,0.06,0.69,0.56,2,2
1772394090.108131,3848242,0.16,0.04,0.03,-52.00,-81.62,259.12,-0.37,0.25,0.56,-0.07,0.08,-0.10,-24.50,-82.50,84.12,0.69,-0.56,-0.06,2,3
1772394090.149011,3848283,0.15,0.02,0.00,-52.38,-81.56,259.06,1.81,0.13,1.06,-0.11,0.11,-0.07,-24.62,-82.50,84.12,0.56,-0.44,0.06,2,2
1772394090.189714,3848323,0.18,-0.02,-0.01,-52.50,-81.56,259.12,1.87,-0.25,0.31,-0.07,0.11,-0.06,-24.69,-82.50,84.12,0.25,-0.25,0.13,2,2
1772394090.230466,3848364,0.15,-0.05,-0.01,-52.56,-81.56,259.19,0.06,0.25,-0.19,-0.08,0.09,-0.03,-24.75,-82.50,84.12,-0.25,0.06,0.25,2,2
1772394090.271297,3848405,0.13,-0.06,-0.01,-52.50,-81.56,259.19,-0.69,0.50,-0.75,-0.10,0.07,-0.08,-24.81,-82.50,84.12,0.25,-0.06,0.06,2,2
1772394090.311669,3848445,0.13,-0.02,-0.04,-52.44,-81.56,259.19,-0.44,0.50,0.50,-0.10,0.05,-0.04,-24.87,-82.50,84.12,0.19,0.13,0.19,2,3
1772394090.353074,3848487,0.16,0.00,-0.07,-52.44,-81.56,259.19,-0.25,0.81,0.25,-0.09,0.10,-0.04,-24.94,-82.50,84.12,0.06,0.06,0.19,2,3
1772394090.392086,3848526,0.18,-0.02,-0.08,-52.56,-81.62,259.19,-0.50,0.50,0.13,-0.10,0.13,-0.06,-25.00,-82.50,84.12,-0.13,0.44,-0.06,2,3
1772394090.432753,3848566,0.19,0.00,-0.07,-52.56,-81.62,259.19,-0.13,-0.19,0.19,-0.08,0.08,-0.06,-25.12,-82.50,84.12,-0.19,-0.25,-0.13,2,3
1772394090.473619,3848607,0.13,-0.03,-0.06,-52.44,-81.56,259.19,0.56,-1.37,-0.19,-0.08,0.10,-0.06,-25.12,-82.50,84.12,-0.06,-0.69,-0.56,3,3
1772394090.513467,3848647,0.11,0.00,-0.03,-52.13,-81.56,259.19,0.06,-0.69,0.56,-0.09,0.08,-0.06,-25.19,-82.50,84.06,0.13,-0.13,-0.19,3,3
1772394090.554102,3848688,0.14,0.00,0.00,-52.13,-81.56,259.19,-0.13,0.56,0.56,-0.10,0.05,-0.05,-25.19,-82.50,84.06,-0.13,0.31,0.13,3,4
1772394090.593244,3848727,0.15,0.00,-0.07,-52.31,-81.56,259.19,-0.44,0.69,0.44,-0.10,0.09,-0.07,-25.19,-82.50,84.06,-0.44,0.44,0.31,3,4
1772394090.634553,3848768,0.18,0.03,-0.09,-52.44,-81.56,259.12,-0.75,0.56,0.62,-0.05,0.07,-0.09,-25.19,-82.50,84.06,-0.06,0.31,0.31,3,4
1772394090.676750,3848810,0.22,0.01,-0.12,-52.44,-81.56,259.12,-0.69,-0.13,0.13,-0.10,0.08,-0.07,-25.19,-82.50,84.06,-0.19,-0.06,0.13,4,4
1772394090.717879,3848851,0.21,0.01,-0.13,-52.19,-81.56,259.06,-0.88,-1.94,-0.06,-0.06,0.07,-0.08,-25.19,-82.50,84.06,0.13,-0.19,0.13,4,4
1772394090.758572,3848892,0.20,0.05,-0.10,-51.63,-81.50,259.06,-0.88,-2.87,-0.13,-0.09,0.09,-0.03,-25.19,-82.50,84.06,0.31,-0.25,-0.25,4,4
1772394090.800417,3848934,0.27,-0.07,-0.18,-50.94,-81.44,259.06,0.00,-3.56,-0.44,-0.10,0.06,-0.03,-25.19,-82.50,84.06,-0.13,0.06,0.00,4,4
1772394090.841314,3848975,-0.03,0.02,-0.04,-49.88,-81.25,259.06,-1.06,-5.12,1.19,-0.14,0.07,0.00,-25.19,-82.50,84.06,0.62,-0.50,0.00,4,4
1772394090.882314,3849016,0.04,0.05,0.04,-49.19,-81.19,259.00,-0.81,-1.81,-0.44,-0.11,0.05,0.02,-25.19,-82.50,84.06,-0.25,-0.44,0.00,3,3
1772394090.921482,3849055,0.14,0.00,-0.02,-48.81,-81.12,259.00,-1.19,-2.19,-0.37,-0.07,0.10,-0.08,-25.25,-82.50,84.06,-0.37,0.94,0.44,3,4
1772394090.960665,3849094,-0.04,0.09,0.17,-48.44,-81.06,259.00,-0.50,-1.37,-0.50,-0.04,0.08,-0.10,-25.37,-82.50,84.06,0.00,0.13,0.06,3,3
1772394091.002150,3849136,0.16,-0.11,-0.01,-48.69,-81.19,259.00,-0.75,2.56,-0.50,-0.11,0.07,-0.07,-25.31,-82.50,84.06,0.37,-0.44,-0.37,3,3
1772394091.042603,3849176,0.24,0.06,-0.06,-49.00,-81.19,258.94,-1.75,0.94,-1.00,-0.08,0.05,-0.14,-25.31,-82.50,84.12,0.00,0.31,0.19,3,3
1772394091.083643,3849217,0.23,0.00,-0.05,-48.81,-81.25,258.94,-1.31,-0.25,-0.88,-0.05,0.09,-0.07,-25.37,-82.50,84.06,-0.37,-0.88,0.62,2,2
1772394091.124046,3849258,0.20,0.14,-0.02,-48.75,-81.25,258.94,0.50,-0.56,-0.81,-0.06,0.10,-0.04,-25.31,-82.50,84.06,-0.50,0.06,0.56,2,2
1772394091.163373,3849297,0.15,0.06,-0.02,-48.50,-81.31,259.00,2.31,-0.69,-1.50,-0.12,0.05,-0.01,-25.31,-82.50,84.06,0.37,-0.06,0.06,1,2
1772394091.203867,3849337,0.10,-0.02,-0.07,-48.19,-81.31,259.19,2.87,-0.75,-0.94,-0.10,0.09,-0.04,-25.31,-82.50,84.06,0.00,-0.13,0.19,1,2
1772394091.243580,3849377,0.20,-0.08,-0.03,-48.13,-81.31,259.31,2.75,0.56,-0.94,-0.12,0.06,0.00,-25.31,-82.50,84.06,0.25,-0.81,0.31,1,1
1772394091.284672,3849418,0.23,-0.07,-0.14,-48.06,-81.37,259.37,1.56,-1.75,-0.31,-0.09,0.09,-0.09,-25.37,-82.50,84.06,0.13,0.75,0.44,1,1
1772394091.324379,3849458,0.10,-0.01,-0.01,-47.75,-81.31,259.50,2.19,-1.87,0.13,-0.07,0.10,-0.10,-25.44,-82.50,84.06,0.06,-0.06,0.19,1,1
1772394091.363502,3849497,0.09,-0.05,-0.02,-47.69,-81.25,259.56,2.06,0.13,0.50,-0.09,0.11,-0.04,-25.44,-82.50,84.06,0.25,-0.62,0.13,1,1
1772394091.404049,3849538,0.12,-0.07,0.00,-47.81,-81.25,259.62,0.37,1.12,0.44,-0.08,0.12,-0.09,-25.44,-82.50,84.06,0.06,0.31,-0.31,1,1
1772394091.444554,3849578,0.13,-0.06,-0.07,-48.06,-81.31,259.62,-0.94,1.31,0.37,-0.11,0.09,-0.04,-25.44,-82.50,84.06,-0.06,-0.44,-0.19,1,0
1772394091.485362,3849619,0.12,0.00,-0.05,-48.31,-81.31,259.56,-1.06,1.25,1.12,-0.07,0.11,-0.04,-25.44,-82.50,84.06,-0.13,-0.19,0.00,1,1
1772394091.524861,3849659,0.15,0.04,-0.04,-48.69,-81.31,259.44,-0.75,1.19,1.12,-0.08,0.08,-0.06,-25.37,-82.50,84.06,-0.13,0.37,0.06,2,1
1772394091.565747,3849699,0.17,0.02,-0.08,-49.06,-81.31,259.37,-0.50,1.19,0.50,-0.08,0.09,-0.04,-25.37,-82.50,84.06,-0.37,0.19,0.00,2,1
1772394091.606490,3849740,0.18,0.06,-0.10,-49.31,-81.37,259.37,-0.06,1.25,0.37,-0.11,0.08,-0.04,-25.37,-82.50,84.06,0.44,0.19,-0.19,2,2
1772394091.646066,3849780,0.19,-0.02,-0.11,-49.50,-81.37,259.37,0.56,0.56,0.56,-0.09,0.07,-0.04,-25.31,-82.50,84.06,0.44,-0.56,-0.75,2,2
1772394091.687006,3849821,0.16,0.01,-0.11,-49.50,-81.37,259.37,0.25,-0.44,0.25,-0.09,0.07,-0.03,-25.25,-82.50,84.12,0.37,0.06,0.00,2,2
1772394091.728600,3849862,0.13,-0.03,-0.06,-49.44,-81.37,259.37,-0.44,-0.81,0.44,-0.11,0.05,-0.06,-25.31,-82.50,84.12,0.19,-0.50,-0.37,2,2
1772394091.770223,3849904,0.15,0.03,-0.01,-49.31,-81.31,259.31,-0.69,-1.19,0.81,-0.10,0.07,-0.04,-25.31,-82.50,84.12,0.06,-0.31,0.13,2,2
1772394091.811678,3849945,0.15,0.08,0.03,-49.19,-81.31,259.31,-0.50,-0.37,0.19,-0.06,0.05,-0.04,-25.31,-82.50,84.12,0.06,0.44,-0.13,3,3
1772394091.853384,3849987,0.17,0.03,-0.05,-49.19,-81.31,259.31,0.13,0.31,0.31,-0.10,0.07,-0.08,-25.31,-82.50,84.12,0.50,0.00,-0.19,3,3
1772394091.894917,3850029,0.19,0.02,-0.05,-49.19,-81.31,259.31,0.19,-0.31,0.25,-0.08,0.08,-0.07,-25.31,-82.50,84.12,0.13,-0.06,0.00,2,3
1772394091.935848,3850069,0.16,0.07,-0.04,-49.13,-81.31,259.31,-0.31,-0.37,0.00,-0.05,0.12,-0.02,-25.25,-82.50,84.12,0.56,-0.31,0.13,2,3
1772394091.976561,3850110,0.14,0.05,-0.03,-49.06,-81.31,259.31,0.00,0.19,-1.00,-0.08,0.06,-0.09,-25.25,-82.50,84.12,-0.06,0.13,0.13,2,3
1772394092.017204,3850151,0.14,0.00,-0.03,-49.00,-81.31,259.37,0.19,0.06,-0.13,-0.07,0.08,-0.05,-25.25,-82.50,84.12,0.31,0.50,0.31,2,2
1772394092.058753,3850192,0.16,0.04,-0.04,-49.00,-81.31,259.37,0.06,0.13,-0.62,-0.06,0.07,-0.04,-25.25,-82.50,84.12,0.25,0.00,0.25,2,2
1772394092.097951,3850232,0.14,0.00,-0.07,-48.81,-81.31,259.37,0.19,0.00,-0.94,-0.11,0.10,-0.07,-25.25,-82.50,84.12,0.13,0.31,0.31,2,2
1772394092.138851,3850273,0.16,-0.02,-0.08,-48.69,-81.37,259.44,0.31,-0.13,-0.56,-0.08,0.08,-0.08,-25.25,-82.50,84.12,0.06,0.00,0.19,1,2
1772394092.180148,3850314,0.16,-0.04,-0.05,-48.69,-81.37,259.44,0.37,-0.50,-0.19,-0.10,0.09,-0.09,-25.25,-82.50,84.12,0.31,-0.06,-0.19,1,2
1772394092.221238,3850355,0.16,-0.03,-0.05,-48.56,-81.31,259.44,-0.37,-0.88,0.19,-0.09,0.06,-0.05,-25.25,-82.50,84.12,0.13,-0.13,-0.31,1,2
1772394092.263237,3850397,0.13,0.01,-0.03,-48.44,-81.31,259.37,-0.94,-0.56,0.37,-0.08,0.10,-0.05,-25.25,-82.50,84.12,-0.13,0.00,-0.13,1,2
1772394092.305262,3850439,0.16,0.03,-0.03,-48.38,-81.31,259.37,-0.88,-0.25,0.50,-0.10,0.08,-0.06,-25.25,-82.50,84.12,0.00,-0.19,-0.13,1,2
1772394092.346804,3850480,0.17,0.05,-0.07,-48.31,-81.31,259.31,-0.88,-0.50,0.25,-0.06,0.09,-0.04,-25.25,-82.50,84.12,0.13,-0.13,-0.06,1,2
1772394092.387655,3850521,0.21,0.04,-0.06,-48.25,-81.31,259.31,-1.00,-0.50,-0.44,-0.09,0.04,-0.06,-25.25,-82.50,84.12,-0.13,0.31,-0.06,2,3
1772394092.428697,3850562,0.22,0.03,-0.05,-48.19,-81.31,259.25,-0.31,-0.56,0.25,-0.08,0.09,-0.10,-25.25,-82.50,84.12,0.25,-0.25,-0.19,2,3
1772394092.469441,3850603,0.14,0.07,0.00,-48.06,-81.25,259.25,0.19,-0.69,-0.06,-0.12,0.06,-0.06,-25.25,-82.50,84.12,-0.50,0.94,0.25,2,3
1772394092.509923,3850643,0.15,0.00,0.03,-47.88,-81.25,259.31,0.31,-0.56,-0.37,-0.08,0.06,-0.12,-25.25,-82.50,84.12,-0.62,-0.06,0.06,3,3
1772394092.549551,3850683,0.12,0.02,0.07,-47.81,-81.25,259.31,-0.50,-0.56,-0.13,-0.05,0.07,-0.07,-25.25,-82.50,84.12,-0.37,-0.06,0.25,3,4
1772394092.589864,3850724,0.16,0.04,0.04,-47.75,-81.25,259.25,-0.62,0.62,-0.56,-0.04,0.07,-0.13,-25.25,-82.50,84.12,-0.81,0.06,0.25,3,4
1772394092.630825,3850764,0.11,-0.02,0.01,-47.94,-81.25,259.25,-0.25,0.62,-0.19,-0.10,0.07,-0.11,-25.19,-82.50,84.06,-0.94,-0.31,0.25,3,4
1772394092.671252,3850805,0.03,0.00,0.02,-48.06,-81.31,259.25,-0.81,1.06,0.69,-0.11,0.08,-0.01,-25.06,-82.50,84.06,-0.31,-1.19,0.50,3,3
1772394092.711650,3850845,0.16,0.20,-0.01,-48.69,-81.31,259.12,-1.44,2.69,0.88,-0.13,0.10,0.10,-25.00,-82.44,84.06,0.19,-0.94,0.69,3,3
1772394092.750385,3850884,0.16,0.13,-0.06,-49.19,-81.44,259.12,-0.19,3.12,-1.06,-0.07,0.09,0.00,-25.19,-82.44,84.00,0.06,1.06,0.50,3,3
1772394092.791290,3850925,0.13,0.15,-0.11,-49.50,-81.50,259.19,1.12,2.44,-1.06,-0.11,0.12,-0.03,-25.31,-82.44,84.00,1.00,0.37,0.13,3,3
1772394092.831527,3850965,0.17,0.06,-0.16,-49.88,-81.56,259.25,3.50,2.31,-1.19,-0.11,0.06,-0.03,-25.37,-82.44,84.06,1.56,-0.25,0.13,4,3
1772394092.871917,3851006,0.31,0.01,-0.19,-50.25,-81.69,259.44,3.62,0.94,-1.81,-0.08,0.09,-0.06,-25.44,-82.44,84.12,0.50,0.81,0.00,4,4
1772394092.912765,3851046,0.26,-0.05,-0.15,-49.75,-81.75,259.69,2.44,-1.44,-2.87,-0.06,0.11,-0.12,-25.56,-82.50,84.12,-0.19,0.62,-0.06,4,4
1772394092.951668,3851085,0.17,-0.11,-0.05,-48.75,-81.75,259.87,1.50,-3.44,-2.25,-0.11,0.10,-0.09,-25.56,-82.50,84.12,0.13,-0.69,-0.37,4,4
1772394092.992307,3851126,0.10,-0.05,0.01,-48.00,-81.69,259.94,0.88,-3.94,-0.31,-0.12,0.03,-0.01,-25.31,-82.44,84.12,1.00,-1.12,-0.56,4,3
1772394093.032212,3851166,0.07,-0.04,0.10,-47.38,-81.62,259.94,0.13,-2.75,0.62,-0.10,0.05,-0.04,-25.31,-82.44,84.19,0.75,0.19,0.00,4,3
1772394093.072568,3851206,0.12,0.00,0.06,-47.25,-81.56,259.94,-0.75,-0.19,1.62,-0.08,0.10,-0.07,-25.44,-82.50,84.19,0.19,0.88,0.37,4,3
1772394093.112926,3851247,0.13,0.06,0.02,-47.50,-81.50,259.81,-0.88,0.06,0.88,-0.09,0.14,-0.09,-25.44,-82.50,84.19,0.19,0.25,0.13,3,3
1772394093.152173,3851286,0.19,0.06,0.01,-47.56,-81.50,259.81,-0.31,-0.31,0.13,-0.07,0.09,-0.10,-25.37,-82.44,84.19,0.19,-0.75,-0.44,3,3
1772394093.193044,3851326,0.15,0.01,-0.01,-47.50,-81.50,259.81,0.37,-0.25,0.00,-0.07,0.07,-0.06,-25.25,-82.44,84.19,-0.19,-0.37,-0.69,3,3
1772394093.233532,3851367,0.17,0.00,0.02,-47.50,-81.50,259.81,0.56,0.56,-0.19,-0.09,0.03,-0.08,-25.25,-82.44,84.19,0.19,0.00,-0.31,3,3
1772394093.274546,3851408,0.16,-0.03,-0.05,-47.56,-81.50,259.81,-0.19,0.25,0.75,-0.10,0.08,-0.06,-25.25,-82.44,84.19,0.25,-0.94,-0.37,3,3
1772394093.315267,3851449,0.16,0.05,-0.03,-47.75,-81.44,259.75,-0.44,-0.06,0.75,-0.10,0.05,-0.03,-25.25,-82.44,84.19,0.00,0.37,0.37,2,2
1772394093.354681,3851488,0.14,0.00,-0.02,-47.75,-81.44,259.75,-0.19,0.50,0.25,-0.09,0.09,-0.06,-25.25,-82.44,84.19,-0.25,-0.44,-0.31,2,2
1772394093.395832,3851529,0.17,0.06,-0.01,-47.75,-81.44,259.75,-0.50,0.25,0.37,-0.07,0.04,-0.03,-25.25,-82.44,84.19,-0.56,0.00,-0.13,2,2
1772394093.437624,3851571,0.18,0.08,-0.02,-47.75,-81.44,259.75,-0.69,1.06,-1.06,-0.07,0.09,-0.07,-25.25,-82.44,84.19,-0.50,0.13,-0.31,2,2
1772394093.479418,3851613,0.12,0.08,-0.02,-47.69,-81.50,259.75,-0.75,0.44,-1.06,-0.15,0.02,-0.09,-25.12,-82.44,84.19,0.50,-0.31,-0.44,2,2
1772394093.519571,3851653,0.15,0.06,0.00,-47.63,-81.50,259.75,0.62,-0.13,-0.13,-0.08,0.06,-0.07,-25.12,-82.44,84.19,0.06,-0.37,-0.06,2,2
1772394093.561113,3851695,0.18,0.05,0.00,-47.63,-81.50,259.81,0.88,0.50,0.31,-0.09,0.10,-0.03,-25.06,-82.44,84.19,0.19,0.06,0.31,2,2
1772394093.602164,3851736,0.14,0.00,-0.04,-47.75,-81.56,259.81,-0.13,0.69,-0.62,-0.08,0.05,-0.06,-25.06,-82.44,84.19,0.69,0.13,0.31,2,2
1772394093.643011,3851777,0.17,0.06,-0.04,-47.75,-81.56,259.81,0.06,0.56,-0.44,-0.11,0.05,-0.05,-25.12,-82.44,84.25,0.25,-0.13,0.25,1,2
1772394093.683595,3851817,0.17,0.01,-0.05,-47.75,-81.56,259.81,0.37,0.69,-0.69,-0.11,0.09,-0.06,-25.12,-82.44,84.25,0.06,0.13,0.37,1,1
1772394093.724235,3851858,0.16,0.00,-0.07,-47.75,-81.56,259.87,-0.37,0.13,-0.31,-0.07,0.10,-0.05,-25.12,-82.44,84.25,0.19,0.19,0.13,1,1
1772394093.765563,3851899,0.16,0.00,-0.05,-47.75,-81.56,259.87,-0.06,-0.25,0.00,-0.09,0.09,-0.06,-25.12,-82.44,84.25,0.37,-0.31,-0.31,2,1
1772394093.805054,3851938,0.12,-0.02,-0.01,-47.69,-81.56,259.87,0.00,-0.62,-0.13,-0.09,0.08,-0.05,-25.12,-82.44,84.25,-0.19,-0.06,-0.31,2,1
1772394093.845448,3851979,0.15,-0.04,-0.04,-47.69,-81.56,259.87,-0.50,0.06,0.50,-0.08,0.05,-0.03,-25.12,-82.44,84.25,0.06,-0.37,-0.13,2,1
1772394093.886260,3852020,0.12,0.00,-0.04,-47.75,-81.56,259.81,-0.69,0.69,0.94,-0.08,0.04,-0.05,-25.12,-82.44,84.25,0.19,-0.19,-0.06,1,1
1772394093.926923,3852061,0.14,0.04,-0.02,-47.94,-81.56,259.75,-0.56,0.31,0.94,-0.07,0.09,-0.08,-25.12,-82.44,84.25,-0.19,0.13,0.06,3,2
1772394093.968650,3852102,0.18,0.02,-0.03,-48.06,-81.50,259.69,-0.50,-0.13,0.69,-0.07,0.09,-0.07,-25.12,-82.44,84.25,-0.25,-0.06,-0.31,3,2
1772394094.010028,3852144,0.16,0.04,-0.03,-48.13,-81.50,259.69,-0.06,0.06,0.50,-0.08,0.10,-0.05,-25.12,-82.44,84.25,-0.13,0.31,-0.19,3,2
1772394094.052561,3852186,0.17,-0.03,-0.09,-48.13,-81.50,259.69,0.19,-0.19,0.50,-0.08,0.03,-0.08,-25.12,-82.44,84.19,-0.50,0.37,-0.31,4,3
1772394094.093564,3852227,0.12,0.00,-0.12,-48.13,-81.44,259.62,-0.94,-2.00,1.62,-0.17,0.07,-0.03,-25.12,-82.44,84.19,0.31,-0.13,-0.06,4,3
1772394094.132945,3852266,0.19,0.00,-0.14,-47.88,-81.31,259.50,-2.19,-2.75,0.94,-0.08,0.06,-0.13,-25.19,-82.44,84.19,-0.50,0.19,-0.13,4,4
1772394094.172735,3852306,0.25,-0.01,-0.16,-47.13,-81.19,259.37,-3.56,-4.44,0.88,-0.10,0.06,-0.08,-25.12,-82.44,84.19,-0.56,0.25,0.13,5,4
1772394094.214098,3852348,0.24,0.14,-0.08,-46.06,-81.00,259.25,-4.25,-7.12,0.81,-0.09,0.04,0.00,-25.12,-82.44,84.19,-0.13,-0.50,-0.50,5,4
1772394094.254666,3852388,0.11,0.15,0.00,-44.63,-80.81,259.19,-1.81,-7.37,-0.31,-0.10,0.06,0.01,-24.81,-82.44,84.19,0.44,-0.75,-1.19,5,4
1772394094.295742,3852429,0.02,0.12,0.13,-43.50,-80.62,259.12,-0.19,-5.50,-0.44,-0.10,0.00,-0.04,-24.50,-82.44,84.25,0.31,-0.50,-0.88,5,4
1772394094.334388,3852468,0.06,0.06,0.19,-42.69,-80.50,259.19,0.31,-3.75,-0.44,-0.08,0.03,-0.03,-24.44,-82.44,84.25,0.69,-0.94,-0.31,3,3
1772394094.373480,3852507,0.07,0.10,0.17,-42.31,-80.44,259.19,1.25,-2.00,-0.69,-0.06,0.06,-0.14,-24.44,-82.44,84.25,-0.19,0.69,0.25,3,3
1772394094.414763,3852549,0.13,0.00,0.14,-42.19,-80.44,259.31,1.44,0.06,-0.31,-0.07,0.07,-0.13,-24.44,-82.44,84.25,0.44,-0.31,0.00,3,3
1772394094.455292,3852589,0.16,0.02,0.11,-42.19,-80.44,259.31,0.56,0.69,-0.44,-0.07,0.07,-0.10,-24.44,-82.44,84.25,0.50,0.13,0.06,3,2
1772394094.496087,3852630,0.13,0.14,0.05,-42.31,-80.50,259.37,0.62,2.12,-1.94,-0.11,0.11,-0.08,-24.44,-82.44,84.25,0.00,-0.56,-0.19,2,2
1772394094.535058,3852669,0.20,0.10,-0.01,-42.31,-80.62,259.50,1.87,2.00,-2.62,-0.09,0.05,-0.05,-24.44,-82.44,84.25,0.25,-0.62,-0.44,2,2
1772394094.574437,3852708,0.10,0.02,0.00,-42.13,-80.75,259.62,2.81,1.25,-3.06,-0.09,0.01,-0.06,-24.44,-82.44,84.25,0.37,-0.50,-0.19,1,1
1772394094.615382,3852749,0.07,0.01,0.02,-42.00,-80.87,259.87,2.69,2.06,-2.25,-0.10,0.04,0.00,-24.37,-82.44,84.25,0.62,-0.56,0.13,1,1
1772394094.656024,3852790,0.11,0.00,0.00,-42.19,-81.00,260.00,1.75,3.44,-1.62,-0.09,0.02,-0.05,-24.44,-82.44,84.31,0.31,0.13,0.37,1,1
1772394094.696832,3852831,0.11,-0.01,0.01,-42.63,-81.12,260.12,1.62,4.06,-0.94,-0.09,0.05,-0.07,-24.69,-82.44,84.25,0.13,0.75,1.00,1,1
1772394094.735560,3852870,0.13,-0.04,0.04,-43.38,-81.25,260.12,1.31,4.56,0.06,-0.09,0.01,-0.10,-25.06,-82.44,84.19,0.81,0.69,1.19,1,1
1772394094.774943,3852909,0.13,0.00,0.02,-44.50,-81.37,260.12,1.25,6.12,1.50,-0.11,0.07,0.00,-25.37,-82.44,84.19,0.00,0.88,1.00,1,1
1772394094.816517,3852950,0.17,0.02,-0.05,-45.81,-81.50,260.12,1.00,5.56,-0.06,-0.11,0.10,-0.03,-26.00,-82.50,84.06,-1.44,2.37,1.37,2,1
1772394094.856947,3852991,0.25,-0.05,-0.16,-46.81,-81.69,260.12,1.00,3.81,0.37,0.00,0.18,-0.21,-26.62,-82.56,84.00,0.06,1.50,1.12,2,1
1772394094.897364,3853031,0.34,0.04,-0.17,-47.56,-81.69,260.12,1.25,0.00,1.37,-0.12,0.12,-0.09,-26.50,-82.50,84.06,1.50,-1.56,-0.44,2,1
1772394094.936586,3853070,0.17,0.00,-0.09,-47.44,-81.62,260.12,1.37,-2.56,0.13,-0.10,0.08,-0.04,-26.44,-82.44,84.06,0.37,-1.06,-0.37,2,1
1772394094.975842,3853110,0.10,0.02,-0.05,-46.94,-81.56,260.19,0.50,-2.62,0.19,-0.13,0.10,0.00,-26.37,-82.44,84.06,-0.06,-0.25,0.00,2,1
1772394095.017492,3853151,0.08,-0.02,-0.03,-46.38,-81.56,260.25,-0.06,-1.62,-1.50,-0.13,0.06,-0.04,-26.37,-82.44,84.06,-0.44,-0.50,-0.56,2,2
1772394095.058266,3853192,0.12,-0.04,-0.04,-46.00,-81.50,260.25,-0.37,-0.75,0.13,-0.04,0.02,-0.04,-26.25,-82.44,84.06,0.06,-0.62,-0.50,2,2
1772394095.098716,3853232,0.11,-0.02,0.00,-45.94,-81.50,260.25,-0.94,-0.44,0.31,-0.10,0.00,-0.02,-26.06,-82.44,84.06,0.37,-0.31,-0.37,2,2
1772394095.137409,3853271,0.07,-0.01,0.00,-46.06,-81.50,260.19,-2.25,0.88,1.56,-0.08,0.00,-0.12,-26.06,-82.44,84.06,0.37,-0.13,-0.13,2,3
1772394095.176448,3853310,0.21,0.02,0.01,-46.50,-81.50,260.00,-2.25,0.75,2.00,-0.10,0.07,-0.14,-26.06,-82.44,84.06,0.00,-0.13,0.25,2,3
1772394095.217928,3853352,0.18,0.06,0.00,-46.69,-81.44,259.87,-1.75,-0.37,1.62,-0.07,0.05,-0.12,-26.06,-82.44,84.06,0.06,-0.50,0.00,1,2
1772394095.258564,3853392,0.19,0.17,0.00,-46.81,-81.37,259.75,-1.12,-0.50,0.13,-0.07,0.07,-0.04,-26.06,-82.44,84.06,-0.06,-0.56,-0.13,1,2
1772394095.299467,3853433,0.13,0.08,0.04,-46.81,-81.37,259.75,0.31,0.13,-0.06,-0.12,0.02,-0.03,-26.06,-82.44,84.06,0.44,-0.25,-0.25,1,2
1772394095.340604,3853474,0.12,0.03,-0.03,-46.81,-81.37,259.75,1.19,0.75,-0.13,-0.09,0.05,-0.07,-26.06,-82.44,84.06,-0.06,-0.25,0.25,1,2
1772394095.381585,3853515,0.19,0.00,-0.08,-47.06,-81.44,259.81,0.06,0.88,-0.44,-0.10,0.05,-0.02,-26.06,-82.44,84.06,0.25,-0.13,0.31,1,2
1772394095.422203,3853556,0.16,0.01,-0.08,-47.13,-81.44,259.81,-0.13,0.44,-0.69,-0.09,0.06,-0.08,-26.06,-82.44,84.06,0.13,0.31,0.25,1,2
1772394095.461445,3853595,0.19,0.01,-0.05,-47.13,-81.44,259.81,0.75,-0.13,-0.25,-0.11,0.06,-0.08,-26.06,-82.44,84.06,0.44,-0.62,-0.19,1,2
1772394095.502466,3853636,0.16,-0.02,-0.04,-47.06,-81.44,259.81,0.31,-0.75,-0.37,-0.09,0.05,-0.05,-26.00,-82.44,84.06,0.06,-0.62,-0.31,1,1
1772394095.543417,3853677,0.15,-0.07,0.02,-47.00,-81.44,259.81,-1.44,0.19,-0.56,-0.09,0.04,-0.09,-26.00,-82.44,84.06,0.13,0.00,-0.25,1,1
1772394095.584950,3853719,0.20,-0.02,-0.04,-46.88,-81.44,259.69,-2.56,0.13,-0.06,-0.09,0.01,-0.07,-26.00,-82.44,84.06,0.00,0.19,0.19,1,1
1772394095.626310,3853760,0.12,0.03,-0.01,-46.63,-81.44,259.62,-3.12,-1.31,-0.25,-0.08,0.07,-0.05,-26.00,-82.44,84.06,0.00,0.00,0.13,1,1
1772394095.668147,3853802,0.11,0.07,0.02,-46.56,-81.44,259.50,-1.62,0.13,1.00,-0.09,0.01,-0.04,-26.00,-82.44,84.06,0.44,-0.25,0.06,1,2
1772394095.709200,3853843,0.16,0.07,0.00,-46.81,-81.37,259.50,0.13,0.88,0.62,-0.09,0.04,-0.05,-26.00,-82.44,84.06,0.06,0.13,0.13,2,2
1772394095.750265,3853884,0.16,0.01,-0.07,-47.00,-81.44,259.44,-0.37,0.88,0.00,-0.09,0.06,-0.11,-26.06,-82.44,84.06,-0.19,0.44,0.00,2,3
1772394095.791357,3853925,0.19,0.01,-0.04,-47.19,-81.44,259.44,-0.19,0.37,-0.31,-0.09,0.09,-0.11,-26.06,-82.44,84.06,-0.19,0.06,-0.13,2,3
1772394095.832160,3853966,0.17,0.02,-0.03,-47.19,-81.44,259.44,-0.31,-0.50,-0.37,-0.10,0.08,-0.03,-26.06,-82.44,84.06,0.00,-0.37,0.00,2,3
1772394095.873186,3854007,0.10,0.00,0.00,-47.19,-81.44,259.44,-0.44,-0.37,-0.75,-0.05,0.04,-0.07,-26.06,-82.44,84.06,0.00,0.50,-0.25,3,4
1772394095.912305,3854046,0.10,0.01,-0.03,-47.13,-81.44,259.50,-0.62,0.56,0.06,-0.11,0.06,-0.05,-26.06,-82.44,84.06,0.31,0.56,0.00,3,4
1772394095.953476,3854087,0.14,0.01,-0.05,-47.19,-81.50,259.44,-0.56,0.06,-0.44,-0.09,0.03,-0.15,-26.12,-82.44,84.06,-0.13,0.50,0.25,3,4
1772394095.994588,3854128,0.19,0.01,0.00,-47.19,-81.50,259.44,-0.56,-0.13,0.25,-0.07,0.09,-0.12,-26.12,-82.44,84.06,-0.19,0.31,-0.06,3,4
1772394096.035513,3854169,0.17,0.00,-0.04,-47.13,-81.44,259.44,0.06,-0.62,0.31,-0.07,0.06,-0.13,-26.12,-82.44,84.06,-0.06,0.50,0.19,3,4
1772394096.077489,3854211,0.19,0.00,-0.08,-46.94,-81.44,259.44,0.25,-0.94,0.44,-0.10,0.04,-0.08,-26.06,-82.44,84.06,0.06,-0.75,-0.56,3,4
1772394096.119681,3854253,0.16,0.06,-0.10,-46.69,-81.44,259.44,-0.31,-1.44,0.06,-0.13,0.04,-0.06,-26.00,-82.44,84.12,-0.06,0.13,-0.50,3,3
1772394096.161459,3854295,0.17,0.04,-0.16,-46.25,-81.37,259.50,-0.50,-2.69,-0.50,-0.07,0.03,-0.07,-26.00,-82.44,84.12,-0.19,-0.13,-0.25,2,2
1772394096.201932,3854336,0.20,0.04,-0.08,-45.50,-81.25,259.50,-0.62,-4.19,-1.25,-0.09,0.04,0.00,-25.94,-82.44,84.12,0.25,-0.44,-0.25,2,2
1772394096.241244,3854375,0.10,0.05,-0.03,-44.38,-81.19,259.56,-0.69,-4.50,-2.00,-0.10,0.01,-0.03,-25.87,-82.37,84.12,0.25,-0.06,-0.13,2,3
1772394096.280449,3854414,0.13,0.02,0.02,-43.25,-81.12,259.62,-1.06,-3.94,-1.94,-0.09,0.03,-0.05,-25.87,-82.37,84.12,0.44,0.00,0.13,2,3
1772394096.321871,3854456,0.10,0.02,0.05,-42.31,-81.12,259.62,-1.12,-2.12,-2.19,-0.08,0.05,-0.09,-25.87,-82.37,84.12,0.25,0.00,0.25,2,3
1772394096.362473,3854496,0.13,0.05,0.06,-41.50,-81.06,259.69,-0.62,-1.75,-2.25,-0.09,0.07,-0.13,-25.87,-82.37,84.12,0.13,0.31,0.19,2,2
1772394096.403629,3854537,0.16,0.03,0.13,-40.75,-81.12,259.81,0.19,-1.37,-2.25,-0.08,0.04,-0.13,-25.87,-82.37,84.12,-0.13,-0.44,-0.06,1,3
1772394096.442258,3854576,0.08,0.01,0.15,-40.19,-81.12,259.87,1.12,-0.69,-1.44,-0.10,0.00,-0.07,-25.75,-82.37,84.12,0.44,-1.00,-0.19,1,3
1772394096.481333,3854615,0.03,0.04,0.15,-40.06,-81.12,259.94,1.69,1.00,-0.37,-0.09,0.00,-0.06,-25.69,-82.37,84.12,0.88,-0.81,0.06,1,2
1772394096.522397,3854657,0.09,0.08,0.09,-40.56,-81.19,260.06,2.56,3.75,0.37,-0.06,0.02,-0.10,-25.69,-82.31,84.12,0.44,0.25,0.56,1,2
1772394096.563600,3854697,0.16,0.01,-0.02,-41.38,-81.31,260.12,3.00,4.37,-0.19,-0.11,0.02,-0.10,-25.81,-82.31,84.12,-0.56,-0.25,1.06,1,2
1772394096.603932,3854738,0.16,0.00,-0.07,-42.19,-81.44,260.19,1.44,3.50,0.56,-0.07,0.06,-0.07,-26.12,-82.31,84.06,0.00,-0.75,1.44,1,2
1772394096.642938,3854777,0.26,0.04,-0.07,-42.88,-81.56,260.19,0.31,3.12,0.19,-0.05,0.08,-0.17,-26.44,-82.25,84.00,-0.94,0.25,1.06,1,2
1772394096.683224,3854817,0.27,-0.01,-0.08,-43.25,-81.62,260.19,0.19,1.69,-0.94,-0.09,0.11,-0.13,-26.75,-82.25,83.94,-1.19,0.50,1.25,1,2
1772394096.724332,3854858,0.11,-0.01,-0.03,-43.13,-81.69,260.25,-0.75,-1.25,-0.37,-0.10,0.12,0.02,-26.94,-82.25,83.87,0.13,-0.25,0.31,1,2
1772394096.764347,3854898,-0.02,0.03,0.01,-42.94,-81.62,260.19,-0.06,0.75,-0.19,-0.14,0.03,0.07,-26.94,-82.25,83.94,1.31,0.00,-0.50,2,2
1772394096.804339,3854938,0.07,0.01,-0.05,-43.25,-81.69,260.25,1.62,3.00,0.88,-0.06,0.09,0.01,-26.87,-82.25,84.00,1.06,1.44,-0.81,2,3
1772394096.843565,3854977,0.06,-0.01,-0.07,-44.25,-81.75,260.25,2.25,4.37,0.44,-0.20,0.09,-0.05,-26.87,-82.31,84.00,0.19,0.50,-0.62,2,3
1772394096.883105,3855017,0.18,-0.05,-0.10,-45.06,-81.87,260.31,1.56,2.75,0.50,-0.08,0.10,-0.14,-26.87,-82.31,84.00,0.37,-0.44,-0.50,2,3
1772394096.924291,3855058,0.27,0.03,-0.05,-45.63,-81.87,260.25,-0.37,1.50,1.44,-0.02,0.07,-0.13,-26.62,-82.31,84.06,0.44,-0.37,-1.00,2,3
1772394096.964845,3855099,0.22,0.02,-0.06,-46.13,-81.87,260.25,1.00,1.37,0.44,-0.09,0.03,-0.15,-26.37,-82.31,84.06,0.31,-0.13,-0.81,2,3
1772394097.005418,3855139,0.10,0.00,-0.06,-46.31,-81.87,260.25,1.69,0.06,1.25,-0.11,0.00,-0.15,-26.06,-82.31,84.19,1.44,-0.69,-1.06,2,3
1772394097.044585,3855178,0.10,-0.01,0.00,-46.75,-81.87,260.25,1.25,-0.37,2.44,-0.11,-0.06,-0.12,-25.62,-82.31,84.25,0.56,-1.69,-1.06,2,3
1772394097.084198,3855218,0.13,-0.03,0.00,-47.25,-81.75,260.12,-0.44,-0.25,2.81,-0.08,0.01,-0.08,-25.44,-82.25,84.25,-0.56,-0.06,-0.13,1,3
1772394097.124879,3855259,0.09,0.08,0.05,-47.81,-81.69,259.94,-2.75,1.69,2.44,-0.08,0.04,-0.10,-25.50,-82.31,84.19,-1.12,0.69,0.44,1,3
1772394097.165719,3855299,0.13,0.13,-0.03,-48.50,-81.69,259.75,-2.50,2.56,2.06,-0.09,0.07,-0.08,-25.50,-82.31,84.19,0.25,0.31,0.31,1,3
1772394097.206146,3855340,0.23,0.18,-0.03,-49.25,-81.69,259.62,-1.00,2.19,0.88,-0.08,0.13,-0.11,-25.56,-82.31,84.19,0.13,0.88,0.25,1,3
1772394097.246956,3855381,0.21,0.01,-0.07,-49.56,-81.75,259.62,0.62,1.00,-1.44,-0.05,0.09,-0.12,-25.69,-82.31,84.19,-0.44,0.69,-0.13,1,3
1772394097.287845,3855421,0.17,0.00,-0.05,-49.38,-81.81,259.69,0.81,-0.44,-1.12,-0.08,0.06,-0.11,-25.69,-82.31,84.19,0.00,-0.19,-0.50,1,3
1772394097.328486,3855462,0.13,-0.02,-0.01,-49.19,-81.81,259.75,1.12,-1.12,0.06,-0.12,0.00,-0.07,-25.56,-82.31,84.19,0.25,-1.19,-0.37,1,3
1772394097.367662,3855502,0.09,-0.04,-0.01,-49.06,-81.81,259.75,0.19,-0.37,0.81,-0.12,0.03,-0.02,-25.50,-82.31,84.19,0.19,-0.50,0.06,2,3
1772394097.408417,3855542,0.16,0.00,-0.07,-49.25,-81.75,259.75,-1.37,0.88,1.00,-0.12,0.05,-0.09,-25.50,-82.31,84.19,-0.31,0.81,0.06,2,4
1772394097.448960,3855583,0.20,0.04,-0.07,-49.50,-81.75,259.62,-1.75,-0.19,0.56,-0.10,0.06,-0.13,-25.56,-82.31,84.19,-0.31,0.31,-0.13,3,4
1772394097.489316,3855623,0.18,0.05,-0.05,-49.44,-81.75,259.56,-1.00,-1.31,0.69,-0.11,0.04,-0.10,-25.56,-82.31,84.19,0.19,-0.13,-0.37,3,4
1772394097.529625,3855663,0.15,0.07,0.00,-49.25,-81.69,259.50,-0.19,-1.37,0.62,-0.10,0.05,-0.11,-25.56,-82.31,84.19,0.31,-0.50,-0.13,4,4
1772394097.568544,3855703,0.16,0.05,0.00,-49.00,-81.62,259.50,0.00,-1.19,-0.19,-0.09,0.06,-0.10,-25.56,-82.31,84.19,-0.44,0.06,0.00,4,4
1772394097.609581,3855743,0.16,0.03,0.00,-48.81,-81.62,259.56,-0.31,-1.31,-0.44,-0.07,0.06,-0.09,-25.56,-82.31,84.19,-0.06,-0.37,-0.06,4,4
1772394097.650500,3855784,0.11,0.02,0.01,-48.56,-81.56,259.56,0.19,-0.56,-0.69,-0.09,0.00,-0.11,-25.56,-82.31,84.19,-0.50,0.37,0.00,4,4
1772394097.690870,3855825,0.11,0.03,0.00,-48.50,-81.62,259.56,0.19,-0.56,0.37,-0.13,0.06,-0.04,-25.56,-82.31,84.19,0.25,-0.31,-0.13,4,4
1772394097.731569,3855865,0.13,0.05,-0.03,-48.50,-81.62,259.56,-0.13,-0.44,-0.31,-0.10,0.04,-0.09,-25.62,-82.31,84.19,-0.44,0.75,0.31,4,4
1772394097.770634,3855904,0.17,0.00,-0.04,-48.44,-81.62,259.56,-0.19,-0.56,-0.31,-0.07,0.03,-0.12,-25.62,-82.31,84.19,-0.19,0.31,0.00,4,4
1772394097.810867,3855945,0.19,0.00,0.00,-48.38,-81.62,259.56,0.13,-0.69,-0.31,-0.06,0.04,-0.12,-25.56,-82.31,84.19,-0.44,0.25,0.19,4,4
1772394097.851427,3855985,0.16,0.00,0.02,-48.19,-81.56,259.56,-0.37,-1.00,0.06,-0.09,0.03,-0.15,-25.56,-82.31,84.19,0.19,-0.25,0.06,4,3
1772394097.892520,3856026,0.14,0.04,-0.02,-48.06,-81.56,259.56,-0.56,-0.81,0.19,-0.11,0.04,-0.10,-25.56,-82.31,84.19,0.44,-0.25,0.00,3,3
1772394097.934125,3856068,0.20,0.03,0.00,-47.88,-81.56,259.56,-0.13,-1.31,-0.31,-0.09,0.05,-0.09,-25.56,-82.31,84.19,-0.62,-0.19,0.37,3,3
1772394097.975542,3856109,0.14,0.04,0.04,-47.56,-81.50,259.56,-1.00,-1.19,-0.44,-0.09,0.12,-0.06,-25.56,-82.31,84.19,-0.88,0.25,0.62,3,3
1772394098.017710,3856151,0.13,0.04,0.00,-47.25,-81.50,259.56,-0.62,-0.31,-1.44,-0.11,0.08,-0.09,-25.62,-82.31,84.19,-0.13,0.19,0.31,2,2
1772394098.058626,3856192,0.13,0.03,-0.03,-46.94,-81.56,259.62,0.75,-0.81,-0.88,-0.10,0.06,-0.10,-25.69,-82.31,84.19,-0.44,0.81,0.56,2,2
1772394098.099679,3856233,0.20,0.00,-0.08,-46.75,-81.56,259.69,0.50,-1.00,-1.00,-0.12,0.08,-0.09,-25.62,-82.31,84.19,-0.19,-0.50,0.06,2,2
1772394098.138754,3856272,0.20,-0.02,-0.13,-46.25,-81.56,259.75,0.19,-2.12,-0.88,-0.10,0.05,-0.06,-25.62,-82.31,84.19,-0.06,0.50,0.00,2,2
1772394098.180657,3856314,0.21,-0.03,-0.15,-45.63,-81.50,259.75,-0.44,-3.94,-0.13,-0.10,0.05,-0.10,-25.62,-82.31,84.19,0.06,0.06,-0.13,2,2
1772394098.220531,3856354,0.16,-0.01,-0.08,-44.81,-81.37,259.75,-1.12,-5.31,0.25,-0.11,0.07,-0.06,-25.56,-82.31,84.19,0.25,-0.62,-0.62,1,2
1772394098.261111,3856395,0.14,0.00,0.00,-43.75,-81.19,259.75,-2.12,-5.37,0.44,-0.08,0.05,-0.11,-25.62,-82.31,84.19,-0.37,0.88,-0.19,1,2
1772394098.300660,3856435,0.13,0.02,0.06,-42.81,-81.06,259.69,-2.00,-4.62,0.44,-0.11,0.08,-0.09,-25.62,-82.37,84.19,-0.62,0.31,0.00,1,2
1772394098.339907,3856474,0.13,0.06,0.11,-42.00,-80.94,259.62,-1.50,-4.37,0.62,-0.08,0.08,-0.12,-25.62,-82.37,84.19,0.00,0.37,-0.19,1,2
1772394098.381286,3856515,0.15,0.12,0.13,-41.38,-80.81,259.62,-0.44,-3.25,0.44,-0.09,0.05,-0.11,-25.69,-82.37,84.19,0.94,0.37,-0.06,2,2
1772394098.421252,3856555,0.09,0.13,0.14,-40.94,-80.75,259.62,0.81,-1.81,0.50,-0.12,0.02,-0.12,-25.75,-82.37,84.25,1.81,-0.50,-0.25,2,3
1772394098.461961,3856596,0.14,0.13,0.11,-40.75,-80.69,259.69,1.50,-0.81,0.25,-0.10,0.00,-0.11,-25.75,-82.31,84.25,1.56,-1.06,-0.13,2,3
1772394098.501342,3856635,0.12,0.10,0.17,-40.75,-80.69,259.75,1.75,0.31,-0.56,-0.03,0.02,-0.17,-25.75,-82.31,84.31,1.37,-0.81,0.19,2,3
1772394098.540333,3856674,0.18,0.02,0.10,-40.81,-80.75,259.81,2.06,1.94,-2.25,-0.07,0.00,-0.05,-25.69,-82.25,84.31,0.50,-3.81,1.56,1,3
1772394098.581549,3856715,-0.25,-0.10,0.06,-40.81,-80.87,260.00,1.56,3.75,-0.37,-0.22,0.01,0.05,-25.81,-82.06,84.25,-0.50,-2.69,2.44,1,3
1772394098.621412,3856755,0.24,0.05,-0.06,-42.06,-81.00,259.94,-0.25,8.63,2.37,-0.08,0.12,0.12,-26.25,-82.00,84.12,-1.00,0.88,2.50,1,3
1772394098.661762,3856796,0.31,0.12,-0.13,-43.75,-81.19,259.81,0.31,7.19,1.31,-0.06,0.17,-0.04,-27.06,-82.12,84.19,2.31,6.50,-0.31,2,4
1772394098.700661,3856835,0.24,0.17,-0.12,-45.25,-81.31,259.81,4.62,5.87,1.00,-0.16,-0.08,-0.26,-27.75,-82.31,84.25,1.56,3.75,-0.94,2,4
1772394098.739965,3856874,0.29,-0.05,-0.19,-46.63,-81.37,259.94,7.19,3.06,2.00,-0.14,-0.01,-0.21,-28.25,-82.44,84.25,-2.12,3.69,-0.69,3,4
1772394098.781331,3856915,0.25,-0.09,-0.10,-47.44,-81.31,260.06,5.37,-2.62,3.87,-0.16,-0.11,-0.08,-28.75,-82.69,84.06,-8.88,8.56,1.81,4,4
1772394098.821939,3856956,0.01,0.00,-0.02,-47.75,-81.12,260.06,1.44,-1.37,3.31,-0.17,-0.06,-0.02,-30.12,-82.87,83.69,-6.12,5.19,2.87,4,4
1772394098.862285,3856996,0.08,0.06,-0.04,-48.13,-81.00,259.94,-0.44,0.44,1.81,-0.03,0.07,-0.12,-31.12,-82.94,83.44,-7.25,7.44,2.87,4,3
1772394098.901559,3857035,0.08,0.05,-0.12,-48.50,-81.06,259.87,-0.88,2.87,-0.31,-0.19,-0.19,0.16,-33.06,-83.12,83.06,-5.50,8.31,3.94,4,3
1772394098.940516,3857074,0.13,-0.10,-0.20,-49.00,-81.19,259.87,-1.87,3.50,-0.94,0.00,0.05,-0.06,-3.81,-83.37,82.69,-4.81,16.50,6.75,4,3
1772394098.981625,3857116,0.40,0.00,-0.19,-49.56,-81.25,259.69,-5.56,2.37,2.31,0.01,0.25,-0.37,-4.12,-83.69,82.31,3.87,7.25,4.62,4,3
1772394099.022424,3857156,0.46,0.28,-0.01,-49.88,-81.12,259.37,-5.37,-4.06,1.87,-0.02,0.19,-0.43,-4.25,-83.75,82.44,6.12,1.12,1.25,4,3
1772394099.062845,3857197,0.19,0.22,0.34,-48.81,-80.94,259.25,-1.06,-7.31,-1.12,0.03,0.18,-0.43,-4.31,-83.75,82.50,3.37,0.94,-0.56,4,4
1772394099.101756,3857236,0.23,0.02,0.38,-47.31,-80.81,259.31,1.12,-6.12,-2.44,0.00,-0.01,-0.32,-4.31,-83.81,82.62,0.94,-0.37,-0.62,4,5
1772394099.140930,3857275,0.12,-0.08,0.36,-45.56,-80.69,259.50,1.69,-5.75,-2.44,0.00,0.03,-0.27,-4.31,-83.87,82.62,-0.44,3.62,2.75,4,7
1772394099.182631,3857316,0.10,-0.13,0.25,-44.19,-80.56,259.62,-0.13,-2.00,-1.44,-0.11,0.00,-0.09,-4.56,-83.87,82.37,-0.81,5.75,5.75,3,8
1772394099.223336,3857357,-0.07,0.00,0.22,-43.44,-80.62,259.62,-4.37,1.81,-3.19,-0.05,0.19,-0.04,-4.81,-83.87,82.00,-1.19,7.94,6.69,3,9
1772394099.263559,3857397,0.19,-0.03,0.00,-42.88,-80.81,259.56,-7.25,4.50,-5.87,0.00,0.29,-0.09,-5.06,-83.87,81.69,-3.69,6.06,3.62,2,9
1772394099.302608,3857436,0.07,-0.06,0.01,-41.75,-81.06,259.62,-7.25,0.62,-8.06,0.03,0.24,-0.22,-5.12,-83.87,81.44,-3.00,1.81,1.25,2,9
1772394099.341817,3857475,0.12,-0.05,-0.04,-41.06,-81.25,259.62,-3.12,2.12,-3.56,-0.01,0.30,0.00,-5.19,-83.81,81.31,4.56,-13.19,-4.12,2,10
1772394099.383266,3857517,0.23,0.00,-0.14,-41.13,-81.37,259.69,1.37,0.94,0.00,-0.07,0.05,0.12,-5.06,-83.56,81.87,8.13,-12.75,-4.19,2,10
1772394099.424273,3857558,0.16,0.01,-0.19,-41.69,-81.31,259.75,5.62,-0.75,2.50,-0.15,-0.13,0.18,-4.94,-83.37,82.37,7.37,-8.13,-2.50,3,11
1772394099.464619,3857598,0.02,-0.05,-0.29,-42.50,-81.31,259.87,4.25,2.25,1.69,-0.22,-0.26,0.22,-4.81,-83.31,82.69,2.31,-3.94,-3.12,2,10
1772394099.503722,3857638,0.11,-0.07,-0.30,-43.44,-81.37,259.87,0.62,1.37,0.19,-0.12,-0.14,0.03,-4.62,-83.37,82.81,-2.06,1.25,-2.31,2,9
1772394099.543141,3857677,0.13,-0.07,-0.26,-43.69,-81.50,259.87,-3.06,1.31,-1.31,-0.09,-0.08,-0.05,-4.56,-83.50,82.81,-3.75,1.87,-2.37,1,7
1772394099.584233,3857718,0.16,-0.02,-0.16,-43.88,-81.56,259.75,-4.12,0.88,0.88,-0.06,-0.03,0.00,-4.44,-83.62,82.81,-2.69,0.37,-3.06,1,5
1772394099.625132,3857759,0.22,0.02,-0.16,-44.31,-81.50,259.50,-3.44,-0.81,3.81,-0.12,-0.01,-0.04,-4.25,-83.69,82.94,0.62,-1.94,-3.62,2,5
1772394099.665597,3857799,0.21,0.11,-0.07,-44.88,-81.37,259.25,-2.50,-1.62,4.81,-0.09,-0.07,-0.09,-4.19,-83.69,83.12,2.25,-2.75,-2.44,2,5
1772394099.704594,3857838,0.23,0.18,-0.06,-45.38,-81.19,258.94,-2.31,-2.19,4.25,-0.06,-0.07,-0.13,-4.12,-83.69,83.25,1.62,-0.69,-0.31,2,5
1772394099.743418,3857877,0.26,0.12,0.02,-45.38,-81.00,258.75,-2.94,-3.44,2.00,-0.06,0.01,-0.11,-4.12,-83.69,83.25,0.00,1.12,1.06,1,3
1772394099.784972,3857919,0.13,0.19,0.12,-44.81,-80.87,258.56,-4.12,-3.00,-1.19,-0.06,0.04,0.00,-4.19,-83.69,83.12,-0.44,1.31,1.62,1,3
1772394099.825657,3857960,0.04,0.14,0.16,-44.00,-80.81,258.50,-2.00,-1.25,-2.50,-0.06,0.02,-0.11,-4.25,-83.69,83.06,-0.88,2.56,1.37,1,2
1772394099.865931,3858000,0.09,0.05,0.12,-43.44,-80.81,258.56,-0.13,0.44,-2.19,-0.06,0.00,-0.09,-4.31,-83.75,83.06,0.31,1.06,1.00,2,2
1772394099.904947,3858039,0.13,0.01,0.03,-43.19,-80.87,258.62,0.88,1.06,-1.56,-0.08,0.01,-0.10,-4.31,-83.75,83.06,1.00,-0.06,0.62,2,2
1772394099.944176,3858078,0.16,-0.02,0.02,-43.31,-80.94,258.75,2.00,1.62,-0.88,-0.07,0.02,-0.12,-4.37,-83.75,83.06,0.75,0.00,0.69,2,3
1772394099.985707,3858120,0.20,0.00,-0.02,-43.38,-81.00,258.81,1.62,0.37,-0.94,-0.05,0.00,-0.11,-4.37,-83.75,83.06,0.31,-0.56,0.50,2,3
1772394100.026494,3858160,0.17,-0.02,-0.03,-43.19,-81.00,258.94,1.19,-0.50,-1.87,-0.05,0.00,-0.05,-4.37,-83.75,83.06,0.37,-0.37,0.06,2,4
1772394100.067114,3858201,0.15,-0.02,-0.01,-42.94,-81.06,259.06,1.19,-0.31,-1.12,-0.05,0.02,-0.06,-4.37,-83.75,83.06,0.44,-0.69,0.31,3,4
1772394100.107081,3858241,0.10,0.00,0.01,-42.75,-81.06,259.12,0.75,-0.44,-0.56,-0.09,0.02,0.00,-4.37,-83.69,83.06,0.56,-0.37,0.56,3,5
1772394100.147289,3858281,0.16,0.01,-0.04,-42.56,-81.06,259.12,0.25,-0.88,-0.88,-0.08,0.05,-0.07,-4.37,-83.69,83.06,0.13,0.13,0.56,5,7
1772394100.188123,3858322,0.24,0.02,-0.07,-42.19,-81.06,259.19,0.37,-1.56,-1.94,-0.05,0.05,-0.09,-4.37,-83.69,83.06,-0.69,1.00,0.69,5,8
1772394100.228257,3858362,0.22,-0.01,-0.12,-41.50,-81.06,259.31,0.56,-2.31,-2.12,-0.05,0.05,-0.03,-4.44,-83.69,83.00,-0.69,0.69,0.62,5,9
1772394100.268678,3858402,0.14,-0.06,-0.12,-40.56,-81.06,259.37,0.19,-4.00,-2.81,-0.07,0.00,-0.03,-4.44,-83.69,83.00,-0.62,1.62,0.50,5,10
1772394100.307662,3858441,0.07,-0.06,-0.09,-39.44,-81.00,259.50,-1.00,-3.87,-1.69,-0.14,0.00,0.05,-4.44,-83.75,82.94,-0.56,1.00,1.19,5,11
1772394100.346968,3858481,0.16,-0.07,-0.07,-38.63,-80.94,259.50,-1.31,-2.75,-1.06,-0.08,0.03,-0.02,-4.50,-83.75,82.81,-1.50,3.00,1.62,5,11
1772394100.387959,3858522,0.22,-0.06,-0.06,-38.06,-80.81,259.50,-2.12,-4.37,0.25,-0.08,0.02,-0.02,-4.56,-83.75,82.69,-3.19,3.81,1.87,5,11
1772394100.428299,3858562,0.20,-0.05,-0.03,-37.25,-80.69,259.44,-2.87,-6.37,0.88,-0.18,0.00,0.09,-4.62,-83.81,82.44,-5.44,5.44,2.25,5,11
1772394100.468589,3858602,0.09,-0.04,-0.02,-36.31,-80.50,259.31,-4.37,-5.75,0.37,-0.07,0.04,-0.04,-4.75,-83.94,82.00,-7.37,5.50,1.75,5,11
1772394100.507562,3858641,0.05,0.00,0.03,-35.38,-80.31,259.19,-4.31,-5.12,-0.88,-0.04,0.06,-0.13,-4.75,-84.00,81.62,-7.62,5.56,1.62,7,11
1772394100.546713,3858681,0.12,-0.02,0.08,-34.50,-80.12,259.06,-2.81,-4.56,-0.50,-0.02,-0.01,0.06,-4.75,-84.00,81.44,-6.06,3.31,0.75,5,9
1772394100.588252,3858722,0.08,-0.02,0.09,-33.94,-80.06,259.00,-1.94,-2.31,0.31,-0.02,0.00,-0.05,-4.81,-84.12,81.06,-5.56,4.94,1.37,5,8
1772394100.628554,3858763,0.05,-0.02,0.08,-33.88,-80.00,258.94,-1.94,1.12,1.50,0.00,0.08,-0.14,-4.87,-84.19,80.81,-4.31,6.75,1.75,5,7
1772394100.668881,3858803,0.25,0.04,0.00,-34.44,-80.00,258.75,-1.75,0.62,3.56,-0.03,0.07,-0.15,-4.94,-84.19,80.62,-0.75,1.81,1.12,6,6
1772394100.707851,3858842,0.29,0.05,0.00,-35.00,-79.87,258.56,-2.19,-1.44,3.62,0.00,0.10,-0.19,-5.00,-84.19,80.62,1.50,-1.12,0.81,6,5
1772394100.747163,3858881,0.23,0.13,0.02,-35.06,-79.75,258.37,-3.06,-3.94,2.62,-0.07,0.03,-0.07,-5.00,-84.12,80.62,1.87,-2.87,-0.69,6,4
1772394100.788878,3858923,0.10,0.19,0.11,-34.69,-79.50,258.19,-1.75,-5.37,1.06,-0.13,-0.03,0.06,-4.94,-84.12,80.75,0.19,-3.56,-2.12,5,4
1772394100.829666,3858963,-0.03,0.04,0.05,-34.19,-79.31,258.19,-0.37,-3.19,0.06,-0.08,-0.04,0.03,-4.87,-84.19,80.81,-2.12,-0.31,-1.44,5,3
1772394100.870643,3859004,0.03,0.02,0.07,-33.94,-79.25,258.19,-1.75,-0.25,1.19,-0.10,-0.06,0.02,-4.81,-84.19,80.81,-0.56,-1.12,-1.00,6,3
1772394100.909053,3859043,0.14,0.15,0.03,-34.13,-79.25,258.06,-2.31,0.88,1.75,-0.09,-0.03,0.00,-4.81,-84.19,80.87,1.12,-2.19,-0.81,5,2
1772394100.948142,3859082,0.16,0.24,0.01,-34.50,-79.19,257.87,-1.56,1.00,1.69,-0.06,-0.05,-0.06,-4.81,-84.19,80.94,1.56,-0.75,0.62,5,2
1772394100.989417,3859124,0.26,0.25,-0.09,-35.06,-79.25,257.81,0.25,2.12,-0.69,0.02,0.15,-0.25,-4.81,-84.12,80.94,0.44,-1.62,1.19,4,2
1772394101.030656,3859164,0.38,0.10,-0.13,-35.06,-79.25,257.81,0.62,-1.94,-3.00,-0.05,-0.04,-0.17,-4.87,-84.06,80.87,-0.56,-0.31,1.87,4,1
1772394101.070840,3859205,0.14,-0.02,0.02,-34.13,-79.25,258.00,-0.13,-4.06,-4.37,-0.05,0.06,-0.03,-4.94,-83.94,80.81,-0.88,1.00,1.94,3,2
1772394101.109975,3859244,0.02,-0.07,0.10,-33.00,-79.25,258.19,-0.13,-2.75,-4.31,-0.16,-0.05,0.06,-5.06,-83.94,80.69,-1.69,1.87,2.06,4,2
1772394101.148737,3859283,0.00,-0.16,0.06,-32.00,-79.25,258.37,-0.06,-0.81,-3.87,-0.03,0.09,0.07,-5.12,-83.94,80.56,-2.81,2.37,2.00,4,2
1772394101.190159,3859324,0.06,-0.07,0.00,-31.62,-79.37,258.44,-0.88,1.50,-1.94,-0.06,0.13,0.02,-5.19,-83.87,80.31,-2.62,2.75,2.25,4,2
1772394101.231076,3859365,0.13,-0.02,-0.02,-31.44,-79.44,258.50,-0.94,1.81,-1.12,-0.02,0.05,-0.13,-5.25,-83.81,80.19,-1.37,0.69,1.00,4,2
1772394101.271540,3859406,0.27,0.05,-0.01,-31.56,-79.50,258.50,2.00,0.75,0.06,0.00,0.19,-0.12,-5.37,-83.81,80.06,-0.62,1.25,1.37,3,3
1772394101.310514,3859445,0.26,0.04,0.01,-31.69,-79.50,258.62,5.06,-1.56,0.00,-0.05,0.13,-0.08,-5.37,-83.75,80.00,0.25,-0.75,0.13,3,3
1772394101.349860,3859484,0.21,-0.06,0.00,-31.62,-79.44,258.81,6.12,-3.06,-0.37,-0.03,0.11,-0.02,-5.44,-83.75,80.00,-0.19,-1.56,-1.06,3,3
1772394101.391364,3859525,0.14,-0.07,0.01,-31.37,-79.31,259.00,4.87,-4.06,-0.94,-0.07,0.06,-0.04,-5.37,-83.75,80.00,-0.88,-0.88,-1.25,3,4
1772394101.431883,3859566,0.09,-0.11,0.02,-30.94,-79.19,259.19,3.44,-4.94,-0.44,-0.08,0.05,0.05,-5.31,-83.81,80.00,-1.75,-0.94,-1.50,4,4
1772394101.472972,3859607,0.02,-0.14,0.04,-30.50,-79.06,259.31,1.75,-2.75,0.19,-0.07,0.01,0.06,-5.25,-83.81,79.94,-2.00,-0.13,-1.19,4,4
1772394101.511531,3859646,0.00,-0.09,0.10,-30.44,-79.00,259.37,-0.25,0.19,2.00,-0.07,0.00,0.04,-5.25,-83.87,79.94,-1.37,1.62,0.00,3,3
1772394101.550625,3859685,0.06,-0.03,0.03,-30.94,-78.94,259.19,-1.75,2.50,3.19,-0.03,0.08,-0.05,-5.25,-83.87,79.87,-0.88,1.50,0.37,3,3
1772394101.592248,3859726,0.21,0.07,-0.05,-31.69,-79.00,259.00,-2.31,1.69,3.06,-0.04,0.05,-0.10,-5.25,-83.87,79.87,-0.44,-0.06,0.00,3,3
1772394101.632859,3859767,0.22,0.12,-0.04,-32.19,-78.94,258.81,-1.19,0.19,1.62,-0.12,-0.05,0.01,-5.25,-83.87,79.87,-1.87,-2.00,-1.44,3,2
1772394101.672977,3859807,0.07,-0.07,0.03,-32.38,-78.94,258.75,-1.19,1.00,0.75,0.00,0.05,-0.06,-5.19,-83.94,79.75,-4.56,2.12,-0.69,3,2
1772394101.712145,3859846,0.16,-0.10,-0.01,-32.56,-79.00,258.62,-2.62,1.75,1.06,-0.09,0.00,-0.02,-5.12,-84.00,79.69,-2.69,0.81,-1.75,4,2
1772394101.750971,3859885,0.13,-0.10,0.07,-32.88,-78.94,258.50,-2.75,0.56,3.00,0.00,0.00,-0.09,-5.12,-84.06,79.62,-1.12,2.69,-0.13,4,2
1772394101.792386,3859927,0.12,0.05,0.05,-33.63,-78.94,258.19,-3.00,2.56,4.69,-0.12,0.08,0.00,-5.12,-84.06,79.62,1.56,-0.37,0.06,4,1
1772394101.833034,3859967,0.18,0.20,0.05,-34.56,-78.87,257.94,-1.56,2.62,3.00,-0.02,0.06,-0.08,-5.12,-84.12,79.69,1.87,0.44,0.19,3,1
1772394101.874021,3860008,0.16,0.18,0.05,-35.31,-78.87,257.75,-0.13,2.50,1.31,-0.04,0.01,-0.07,-5.12,-84.12,79.75,1.31,0.19,0.25,3,1
1772394101.913172,3860047,0.12,0.12,0.04,-35.81,-78.94,257.75,0.31,2.81,-0.19,-0.03,0.00,-0.05,-5.12,-84.12,79.81,1.12,0.25,0.37,3,1
1772394101.952269,3860086,0.13,0.03,0.02,-36.19,-79.00,257.69,0.44,3.12,-0.50,-0.07,0.00,-0.06,-5.12,-84.12,79.87,1.75,-0.62,-0.44,2,1
1772394101.993494,3860127,0.11,-0.03,-0.06,-36.56,-79.12,257.69,0.69,3.19,-0.13,-0.07,0.02,-0.08,-5.12,-84.12,79.94,2.06,-0.81,-0.56,2,1
1772394102.034088,3860168,0.31,0.01,-0.13,-36.94,-79.19,257.69,-0.06,1.00,0.13,-0.09,0.00,0.01,-5.06,-84.06,80.19,6.31,-8.81,-4.00,1,1
1772394102.074618,3860209,0.27,-0.04,-0.11,-36.88,-79.19,257.69,0.94,-3.25,-0.56,0.00,0.09,-0.05,-4.94,-84.12,80.44,2.19,-4.25,-3.75,1,1
1772394102.113884,3860248,0.14,-0.10,-0.08,-36.31,-79.06,257.81,1.12,-3.50,-1.56,-0.05,0.02,0.01,-4.81,-84.12,80.62,1.56,-3.25,-2.94,1,1
1772394102.152866,3860287,0.08,-0.15,-0.05,-35.69,-79.00,257.87,-0.62,-3.44,-0.75,-0.05,0.06,-0.04,-4.69,-84.12,80.75,1.62,-2.62,-2.31,1,1
1772394102.194403,3860328,0.19,-0.07,-0.05,-35.13,-78.94,257.81,-3.62,-4.00,0.44,-0.06,0.04,-0.06,-4.62,-84.12,81.00,3.87,-4.75,-1.75,1,2
1772394102.235085,3860369,0.18,-0.01,0.02,-34.38,-78.75,257.69,-6.62,-5.56,-0.06,0.00,-0.06,-0.07,-4.62,-84.00,81.25,6.06,-6.19,-1.75,2,2
1772394102.276588,3860410,-0.06,0.03,0.17,-33.44,-78.62,257.50,-5.12,-3.75,-1.81,-0.19,-0.25,0.25,-4.50,-83.87,81.69,8.69,-9.25,-3.44,2,5
1772394102.315445,3860449,-0.32,-0.03,0.13,-33.13,-78.56,257.37,-2.50,4.56,1.56,-0.12,-0.24,0.12,-4.37,-83.81,82.06,5.75,-4.62,-2.44,2,8
1772394102.354330,3860488,0.12,-0.06,-0.04,-34.13,-78.75,257.19,-1.00,7.87,3.62,-0.11,-0.09,0.07,-4.31,-83.81,82.31,3.87,-0.25,0.00,2,11
1772394102.395251,3860529,0.19,-0.02,-0.07,-35.75,-78.87,256.94,-1.81,8.06,4.44,-0.08,0.01,-0.14,-4.37,-83.81,82.37,2.94,2.00,0.88,2,14
1772394102.435625,3860570,0.33,0.08,-0.10,-37.31,-79.06,256.69,-3.37,5.87,4.50,0.00,0.11,-0.16,-4.44,-83.87,82.44,3.94,0.56,0.25,2,15
1772394102.476009,3860610,0.22,0.29,0.03,-38.50,-79.06,256.37,-2.25,2.56,2.87,-0.04,0.07,-0.14,-4.44,-83.81,82.62,5.31,-2.75,0.13,2,16
1772394102.514889,3860649,0.35,0.28,0.06,-39.31,-79.06,256.19,1.06,3.12,1.50,-0.05,0.09,-0.09,-4.50,-83.75,82.81,4.94,-2.75,0.62,2,16
1772394102.553946,3860688,0.00,0.20,0.09,-39.69,-79.06,256.25,3.62,2.19,-1.25,-0.11,0.00,-0.04,-4.50,-83.69,82.94,4.31,-3.31,0.19,2,17
1772394102.595762,3860730,0.34,-0.05,-0.12,-40.19,-79.19,256.50,6.44,4.31,-2.75,-0.01,-0.01,-0.11,-4.50,-83.62,83.12,3.25,-0.37,0.56,2,16
1772394102.636326,3860770,0.14,-0.18,-0.08,-40.63,-79.44,256.87,5.75,3.44,-3.25,-0.08,0.00,-0.08,-4.50,-83.62,83.19,1.69,-0.13,0.75,2,17
1772394102.676640,3860811,0.01,-0.18,-0.03,-40.81,-79.56,257.12,4.00,2.56,-0.75,-0.08,0.00,-0.02,-4.56,-83.56,83.31,4.31,-1.56,0.69,1,16
1772394102.715626,3860850,0.11,0.01,-0.09,-41.31,-79.62,257.25,4.06,2.94,0.75,-0.11,-0.03,0.04,-4.56,-83.50,83.44,3.81,-2.06,0.75,1,12
1772394102.754595,3860889,0.22,-0.04,-0.12,-41.88,-79.75,257.37,4.25,2.94,-1.19,-0.12,0.06,0.09,-4.62,-83.44,83.44,0.37,0.56,1.69,1,10
1772394102.796411,3860930,0.26,-0.08,-0.10,-41.94,-79.87,257.62,3.56,1.44,-2.81,-0.02,0.12,-0.11,-4.69,-83.44,83.37,-0.44,2.12,0.88,1,9
1772394102.837080,3860971,0.28,-0.16,-0.12,-41.38,-80.00,257.87,3.06,-1.37,-5.31,-0.09,0.02,-0.02,-4.75,-83.50,83.25,-2.69,3.06,1.56,2,10
1772394102.877647,3861011,0.12,-0.15,0.05,-40.19,-80.06,258.19,3.25,-3.81,-4.00,-0.06,0.12,0.07,-4.75,-83.50,83.12,-3.25,-2.56,-1.25,1,11
1772394102.916672,3861050,0.01,-0.16,0.07,-39.13,-80.06,258.50,4.62,-1.50,-4.56,-0.19,-0.10,0.27,-4.75,-83.56,82.81,-9.50,5.00,1.19,1,13
1772394102.955606,3861090,-0.16,-0.50,-0.09,-38.25,-80.25,258.94,4.06,1.06,-5.25,-0.14,-0.02,0.22,-4.75,-83.62,82.50,-10.06,7.25,1.00,1,14
1772394102.997030,3861131,0.07,-0.41,-0.21,-38.31,-80.37,259.06,-0.50,4.87,-0.94,0.00,0.00,-0.12,-4.81,-83.87,81.94,-7.44,9.75,2.75,2,14
1772394103.038275,3861172,0.23,-0.22,-0.22,-38.94,-80.62,258.94,-4.56,4.50,4.25,0.03,0.07,-0.10,-4.87,-83.94,81.62,-4.56,7.25,2.44,2,14
1772394103.079238,3861213,0.30,-0.06,-0.07,-40.38,-80.62,258.56,-5.44,2.06,7.81,0.03,0.09,-0.28,-5.00,-84.00,81.44,-0.31,2.94,1.87,3,13
1772394103.118486,3861252,0.37,0.13,0.00,-41.75,-80.44,258.06,-5.25,-1.75,8.56,-0.01,0.04,-0.21,-5.06,-84.00,81.37,-0.56,1.06,1.00,3,13
1772394103.157618,3861292,0.19,0.25,0.11,-42.44,-80.12,257.56,-5.19,-4.25,7.00,-0.02,0.03,-0.16,-5.06,-83.94,81.37,-0.56,-0.94,0.81,3,12
1772394103.198517,3861333,0.14,0.31,0.13,-42.75,-79.81,257.19,-3.62,-2.25,3.06,-0.06,-0.07,-0.04,-5.06,-83.87,81.37,0.00,-3.56,-1.37,3,10
1772394103.239144,3861373,0.08,0.24,0.06,-42.81,-79.62,256.94,-1.50,-3.25,0.94,-0.06,-0.07,-0.03,-5.00,-83.94,81.50,-0.31,-3.19,-2.56,3,8
1772394103.279341,3861413,0.18,0.08,-0.08,-42.56,-79.50,256.87,1.31,-1.75,-0.06,-0.13,-0.08,0.03,-4.87,-83.94,81.56,-1.50,-1.50,-2.50,3,6
1772394103.319541,3861454,0.05,0.05,0.10,-42.38,-79.44,256.94,1.31,0.62,0.13,-0.08,-0.03,0.00,-4.75,-84.00,81.62,-0.88,-1.44,-2.19,3,5
1772394103.358518,3861493,0.06,0.07,0.11,-42.56,-79.50,256.94,2.81,7.50,0.94,-0.04,-0.11,0.01,-4.69,-84.00,81.69,2.37,-2.75,-1.69,3,3
1772394103.399281,3861533,0.39,-0.04,-0.12,-43.88,-79.62,256.94,0.88,4.37,1.00,0.12,0.37,-0.46,-4.69,-84.00,81.87,4.19,-1.81,-1.19,2,2
1772394103.439624,3861574,0.60,0.16,-0.05,-44.19,-79.69,257.00,1.31,-2.81,-2.50,0.05,0.18,-0.40,-4.62,-83.87,82.25,6.94,-8.81,-2.87,2,1
1772394103.481038,3861615,0.36,0.08,0.16,-42.94,-79.62,257.25,5.19,-7.75,-5.37,-0.05,-0.07,0.01,-4.50,-83.75,82.62,5.25,-9.25,-2.87,2,1
1772394103.519994,3861654,0.02,-0.09,0.20,-41.19,-79.56,257.69,6.12,-5.06,-6.50,-0.06,0.00,-0.02,-4.50,-83.69,82.69,1.69,-2.31,0.00,2,1
1772394103.559126,3861693,-0.22,-0.24,0.14,-40.00,-79.62,258.12,2.62,-0.44,-4.69,-0.18,-0.04,0.08,-4.50,-83.56,82.81,1.50,-4.12,0.31,2,1
1772394103.600161,3861734,-0.19,-0.24,0.04,-39.38,-79.75,258.31,-1.44,2.87,-2.25,-0.15,-0.07,0.14,-4.50,-83.44,82.81,0.69,-4.75,0.31,3,1
1772394103.640499,3861774,0.07,-0.18,-0.12,-39.31,-79.94,258.25,-5.12,3.94,-1.06,-0.11,0.01,0.18,-4.56,-83.31,82.81,-0.81,-3.25,1.00,3,2
1772394103.681076,3861815,0.09,-0.10,-0.17,-39.63,-80.12,258.12,-7.00,4.69,-0.19,-0.14,0.12,0.18,-4.56,-83.25,82.75,-1.62,-0.88,0.56,3,2
