host_time_s,t_ms,ax1,ay1,az1,roll1,pitch1,yaw1,gx1,gy1,gz1,ax2,ay2,az2,roll2,pitch2,yaw2,gx2,gy2,gz2,emg1,emg2
1772051404.973788,80212,-0.17,0.09,0.21,-85.94,-77.87,54.44,0.25,1.12,-2.75,-0.08,-0.12,-0.01,-133.94,45.44,192.75,3.94,0.06,-5.00,3,8
1772051404.974899,80403,0.06,0.16,0.23,-86.50,-77.87,54.19,-4.44,-1.87,1.00,0.09,-0.09,0.20,-134.00,45.06,193.31,-4.94,-5.00,-0.13,3,10
1772051404.975740,80595,0.36,-0.24,-0.08,-87.69,-77.62,53.19,-4.06,2.00,-1.50,-0.19,-0.11,-0.03,-134.31,44.94,192.94,8.94,1.12,-2.06,3,9
1772051404.976476,80786,-0.07,0.08,0.08,-85.44,-78.00,52.56,-0.31,-3.44,-2.37,0.00,-0.01,0.07,-135.75,44.81,192.44,-3.75,-2.37,5.94,3,9
1772051404.977031,80976,-0.08,0.02,0.04,-84.37,-78.37,54.44,8.63,1.62,1.37,0.10,-0.10,0.10,-136.19,45.06,192.19,2.50,-2.00,1.81,3,11
1772051404.977623,81166,-0.05,-0.05,-0.11,-88.00,-78.37,55.56,2.06,2.50,-1.75,0.08,-0.14,0.02,-137.00,45.25,191.19,-0.56,0.00,1.19,3,10
1772051404.978196,81358,-0.05,0.04,0.00,-90.62,-78.37,55.63,0.69,0.31,-0.19,0.02,-0.08,0.06,-137.00,45.25,191.75,2.00,-0.25,-0.44,3,9
1772051404.978718,81548,-0.02,-0.11,-0.07,-91.56,-78.75,56.06,2.06,1.19,-0.81,0.02,-0.10,0.06,-137.06,45.06,191.81,0.13,0.37,-1.62,3,9
1772051404.979233,81739,-0.02,0.12,0.00,-91.44,-78.69,56.00,-2.31,-2.75,0.37,0.01,-0.05,0.07,-136.87,44.88,192.06,0.25,0.25,-0.88,3,8
1772051404.979755,81930,-0.01,-0.02,-0.01,-89.69,-78.75,56.06,0.13,0.69,-1.19,-0.01,-0.06,0.04,-136.87,44.75,192.25,-0.19,-0.06,-0.69,3,7
1772051405.048050,82120,-0.01,0.00,-0.02,-89.62,-78.75,56.13,-0.25,0.06,0.06,0.03,-0.09,0.05,-136.81,44.75,192.25,-0.06,-0.37,-0.44,2,6
1772051405.238580,82311,0.01,0.01,0.00,-89.81,-78.75,56.13,0.50,-0.25,0.56,0.00,-0.06,0.07,-136.81,44.75,192.25,0.37,0.00,-0.31,2,5
1772051405.429085,82502,-0.02,0.10,0.00,-90.94,-78.75,56.31,5.06,3.44,0.31,0.02,-0.07,0.08,-136.81,44.75,192.31,0.00,0.37,-0.31,2,5
1772051405.619888,82693,-0.07,0.26,0.16,-99.56,-77.37,58.19,37.19,11.44,13.19,-0.01,-0.05,0.00,-136.81,44.88,192.06,0.81,1.62,1.69,2,6
1772051405.810644,82883,0.04,-0.22,-0.21,-109.56,-75.50,63.00,18.94,2.00,-1.81,0.22,-0.07,0.11,-137.12,45.38,191.62,-3.31,-3.19,5.25,3,5
1772051406.000394,83073,0.01,-0.01,-0.12,-117.87,-76.19,65.94,6.44,9.38,-16.19,-0.05,-0.02,0.04,-137.19,45.44,192.00,1.19,-0.62,-1.75,2,6
1772051406.191465,83264,-0.01,-0.18,-0.13,-130.00,-77.62,69.06,5.87,4.44,-7.31,0.03,-0.10,0.00,-137.12,45.13,193.37,-4.56,-1.50,-0.94,3,6
1772051406.382321,83455,0.12,-0.22,-0.13,-134.69,-77.81,70.87,1.06,1.62,1.94,0.02,0.01,0.08,-136.62,45.06,193.87,1.25,0.62,1.50,2,7
1772051406.573122,83646,-0.02,0.10,0.03,-128.50,-77.75,69.94,-2.25,-3.31,2.94,-0.02,-0.06,0.10,-137.00,45.44,193.00,0.25,4.81,3.44,3,7
1772051406.763944,83836,-0.14,0.08,0.00,-124.37,-77.44,68.94,0.25,2.06,1.75,-0.06,-0.13,0.00,-136.94,45.63,193.00,2.25,-0.50,-2.81,3,7
1772051406.953653,84026,0.11,0.00,-0.02,-125.75,-77.19,68.44,-2.37,-1.06,1.81,0.04,-0.07,0.06,-136.81,45.56,192.81,-0.19,2.19,-0.13,3,8
1772051407.144542,84217,-0.06,0.15,-0.14,-122.75,-76.75,67.12,-4.69,-1.25,3.19,0.03,-0.09,0.05,-136.56,45.94,192.37,0.31,1.50,1.06,3,7
1772051407.336054,84408,0.02,0.05,0.00,-119.87,-76.56,66.44,-2.25,1.87,0.88,-0.07,-0.09,0.07,-136.44,45.81,192.50,-0.19,-0.06,0.06,2,7
1772051407.526866,84599,-0.09,0.00,0.00,-118.87,-76.31,65.87,0.00,3.31,-0.25,-0.05,-0.08,0.08,-136.25,45.56,193.12,-1.81,-2.00,-1.56,2,5
1772051407.717676,84790,-0.03,0.05,-0.04,-120.19,-76.12,65.50,-0.06,1.25,-0.56,-0.01,-0.08,0.06,-136.25,45.31,193.44,-0.31,-1.00,-1.19,2,5
1772051407.907386,84980,0.02,-0.03,-0.07,-120.25,-75.87,65.06,-1.69,-0.19,0.94,0.02,-0.12,0.03,-136.31,45.19,193.56,0.44,0.31,0.00,2,5
1772051408.098764,85171,-0.03,0.02,0.01,-119.50,-75.81,64.56,-1.25,-0.19,0.44,0.00,-0.10,0.01,-136.25,45.25,193.44,-2.06,0.00,-0.31,2,5
1772051408.289551,85362,0.03,-0.05,-0.02,-119.56,-75.37,63.88,-2.87,2.56,0.75,-0.08,-0.09,-0.02,-136.00,45.13,193.44,0.37,1.06,-0.88,2,4
1772051408.479870,85553,-0.01,0.26,0.07,-118.31,-75.00,62.94,0.06,-2.81,1.25,0.10,-0.13,0.04,-136.12,45.25,193.62,0.06,-0.62,0.25,1,5
1772051408.670875,85743,0.09,-0.02,-0.15,-120.06,-75.25,63.63,0.25,4.44,0.81,0.01,-0.16,-0.01,-136.25,45.13,193.56,1.69,-1.19,-2.19,1,5
1772051408.860510,85933,0.01,-0.05,-0.02,-121.62,-75.19,63.44,-1.44,-0.31,0.69,-0.04,-0.05,0.04,-136.25,45.06,193.50,-0.25,1.69,1.06,2,4
1772051409.051442,86124,0.02,0.13,0.01,-120.25,-74.87,62.81,0.25,-0.56,1.00,0.02,-0.07,0.13,-136.12,45.31,193.31,-0.37,0.69,0.94,2,4
1772051409.242771,86315,0.04,0.00,-0.02,-120.19,-74.81,62.69,-1.37,0.62,-0.94,0.02,-0.11,0.05,-136.25,45.38,193.19,-0.13,-0.44,0.56,2,4
1772051409.433466,86506,0.03,0.01,-0.02,-120.62,-75.06,62.75,0.56,-0.44,-1.50,0.00,-0.06,0.02,-136.31,45.44,193.12,-0.44,0.19,-0.25,2,4
1772051409.624058,86697,-0.03,0.01,0.00,-119.62,-75.31,62.94,-1.75,-1.25,-0.13,0.00,-0.08,0.03,-136.25,45.38,193.25,-0.56,0.06,-0.62,2,5
1772051409.814732,86887,0.00,-0.03,-0.02,-119.31,-75.37,62.94,-0.37,-0.37,-0.13,0.07,-0.06,0.06,-136.12,45.25,193.50,0.06,-0.37,-0.56,2,5
1772051410.004921,87078,-0.02,0.07,0.03,-118.62,-75.50,62.88,-0.25,-2.12,-1.37,0.00,-0.12,0.00,-136.19,45.25,193.44,1.25,0.37,-1.00,2,5
1772051410.196042,87269,-0.05,-0.01,0.00,-119.19,-75.62,63.31,0.37,1.12,0.75,-0.01,-0.07,0.03,-136.19,45.25,193.37,0.13,-0.37,0.13,2,5
1772051410.386794,87459,-0.01,-0.10,-0.03,-119.87,-75.50,63.38,0.56,1.81,0.88,0.04,-0.12,0.03,-136.25,45.25,193.31,-0.19,-1.06,0.06,2,4
1772051410.577424,87650,0.02,0.00,-0.05,-120.44,-75.31,62.69,-2.75,0.88,1.12,0.01,-0.12,0.06,-136.12,45.13,193.50,-0.31,0.00,-0.94,3,4
1772051410.769204,87840,-0.01,0.02,0.00,-120.56,-75.06,62.13,-1.56,1.37,-0.62,-0.01,-0.11,0.06,-136.06,45.06,193.62,0.69,0.50,-0.44,2,5
1772051410.958380,88031,-0.03,0.04,-0.05,-119.69,-75.19,61.94,-0.56,-2.31,0.75,0.05,-0.12,0.06,-136.00,45.06,193.56,-0.06,-0.06,-0.50,2,5
1772051411.149554,88222,0.03,0.03,-0.02,-118.69,-75.31,61.94,0.19,-1.12,-0.88,-0.02,-0.07,0.05,-136.06,45.06,193.44,0.88,0.62,-0.19,2,5
1772051411.339951,88413,0.00,0.03,0.00,-118.19,-75.50,62.13,-0.31,1.19,0.13,0.06,-0.12,0.06,-136.00,45.06,193.44,0.31,0.50,-0.13,3,6
1772051411.530569,88603,0.03,0.04,0.00,-118.00,-75.50,62.19,1.12,-3.31,0.81,0.06,-0.16,0.11,-135.94,45.13,193.31,0.31,0.56,-1.50,3,5
1772051411.720788,88794,0.01,0.02,0.00,-117.44,-75.50,62.13,1.12,-2.06,0.75,0.04,-0.11,0.04,-135.81,45.19,193.25,-0.88,-0.19,-0.88,3,5
1772051411.912074,88985,-0.13,0.02,0.06,-117.00,-75.56,62.19,0.81,0.31,-0.25,0.04,-0.11,0.05,-135.75,45.13,193.44,-1.50,-1.56,-0.50,2,5
1772051412.103244,89176,0.15,0.00,-0.09,-117.62,-75.50,62.19,-1.19,-4.12,-0.62,0.06,-0.12,0.07,-135.69,45.00,193.75,-0.69,0.56,0.56,2,5
1772051412.294022,89366,-0.11,0.10,0.00,-115.12,-75.87,62.13,-0.50,-0.62,-1.44,0.00,-0.08,0.10,-135.75,45.06,193.62,-0.44,0.44,-0.25,2,4
1772051412.486264,89557,0.05,0.11,0.00,-115.06,-76.00,62.25,-2.81,-3.31,-0.37,0.04,-0.13,0.04,-135.87,45.13,193.44,0.94,0.37,0.19,2,4
1772051412.674334,89747,-0.01,-0.04,-0.03,-114.50,-76.31,62.50,1.31,0.56,-0.19,0.06,-0.13,0.02,-135.94,45.13,193.44,0.50,-0.62,0.75,2,4
1772051412.864734,89938,0.06,-0.05,-0.07,-115.19,-76.37,62.63,0.13,0.25,-1.25,0.01,-0.15,0.04,-136.06,45.13,193.44,0.31,-0.50,0.06,2,4
1772051413.056169,90129,0.00,-0.04,-0.03,-115.56,-76.69,62.56,-3.44,0.31,-1.06,0.03,-0.11,0.06,-136.06,45.06,193.50,0.25,0.13,-0.50,2,6
1772051413.247300,90320,0.14,-0.18,-0.16,-114.44,-76.56,61.81,-6.44,-3.87,1.56,0.07,0.03,-0.06,-135.81,44.75,194.12,-4.37,-2.87,-3.50,2,5
1772051413.438023,90511,-0.46,0.26,0.08,-100.94,-78.25,59.19,-21.94,-13.31,-9.56,-0.03,0.02,0.09,-135.37,45.06,192.75,5.31,10.38,-3.94,2,5
1772051413.627845,90700,-0.01,0.39,0.43,-90.75,-78.87,57.06,-9.50,-6.69,-3.37,0.20,-0.29,0.08,-136.00,45.31,190.19,7.50,-4.44,-1.06,3,5
1772051413.818055,90891,0.19,-0.43,-0.29,-91.87,-79.75,56.44,-7.56,4.25,-6.87,-0.06,0.01,0.14,-136.50,44.94,188.94,7.69,10.00,-6.06,4,6
1772051414.009731,91082,-0.08,0.40,0.30,-87.75,-80.00,54.94,-6.31,-1.19,1.44,-0.09,0.05,-0.04,-136.00,45.69,186.87,1.37,0.81,-0.88,4,6
1772051414.200763,91273,0.31,0.15,-0.12,-88.44,-79.62,53.75,-5.06,-2.81,-2.19,-0.09,0.03,0.07,-135.94,45.38,187.44,-0.19,4.25,-0.62,4,7
1772051414.391445,91464,-0.43,0.02,0.25,-84.44,-79.81,53.75,-0.88,-0.81,1.37,0.10,-0.22,0.05,-135.50,45.94,185.87,3.56,3.37,0.19,5,8
1772051414.581075,91654,-0.38,0.67,0.42,-95.75,-78.62,53.44,24.69,23.25,6.81,-0.03,-0.06,0.00,-136.37,46.38,185.12,-3.75,-3.94,4.56,5,8
1772051414.771470,91844,0.47,-0.54,-0.47,-117.87,-75.50,57.81,23.69,7.50,3.81,0.01,-0.03,0.00,-137.06,46.19,185.12,0.19,-2.06,3.31,6,8
1772051414.963458,92036,0.18,0.03,-0.18,-120.50,-76.12,59.25,0.88,-1.50,0.13,-0.20,0.12,-0.07,-137.19,44.88,187.94,-4.25,-7.62,-10.94,5,6
1772051415.154321,92227,0.10,-0.33,-0.02,-105.87,-77.56,57.19,-58.31,-45.25,-11.88,0.19,-0.40,-0.11,-136.50,44.63,188.81,0.56,8.00,4.56,6,6
1772051415.345396,92418,-0.04,0.22,0.32,-84.69,-80.37,54.13,-1.87,4.12,-0.69,-0.14,-0.05,-0.05,-136.31,45.00,187.19,3.75,4.06,-2.56,5,7
1772051415.534418,92607,-0.56,0.63,0.57,-93.75,-80.00,54.56,22.56,22.19,8.75,0.08,0.03,0.17,-135.62,45.13,187.62,-6.44,0.00,-1.12,5,6
1772051415.724787,92798,0.29,-0.56,-0.47,-113.00,-76.25,57.63,13.63,2.12,5.50,0.41,-0.22,0.12,-134.75,45.31,188.87,-9.75,3.81,7.94,6,5
1772051415.916899,92989,0.26,0.06,-0.11,-107.87,-75.00,56.44,-7.06,-10.69,8.69,-0.07,-0.07,-0.06,-133.19,46.38,189.69,-0.56,5.37,-2.31,7,5
1772051416.108272,93181,-0.78,-0.14,-0.18,-94.00,-75.75,55.44,-0.75,-8.69,-4.00,0.39,-0.62,-0.46,-132.37,46.00,190.56,-12.19,-3.44,-1.12,9,6
1772051416.299233,93372,0.73,-0.77,-0.17,-89.06,-75.62,55.50,-15.88,-31.00,-1.06,-0.13,-0.06,-0.36,-131.69,45.63,194.19,-2.37,-10.50,0.56,9,5
1772051416.488292,93561,-0.22,0.38,0.89,-70.44,-76.37,56.06,10.25,0.56,-5.75,-0.21,0.08,0.26,-133.62,43.94,198.19,-7.50,-20.06,9.50,9,4
1772051416.678238,93751,-0.42,-0.44,0.13,-85.56,-76.00,61.44,43.94,17.19,6.31,0.29,0.00,0.21,-135.81,43.63,199.25,6.25,-12.38,9.69,9,4
1772051416.870498,93943,0.80,-0.22,-0.22,-102.37,-76.06,64.12,12.25,6.62,-9.88,-0.33,-0.17,0.34,-139.44,41.75,200.12,7.19,-11.88,-0.44,9,4
1772051417.061553,94134,-0.34,-0.08,-0.67,-103.56,-77.75,68.06,6.75,-3.37,-2.69,1.42,0.16,0.97,-141.06,41.38,198.81,12.63,16.81,-8.06,12,4
1772051417.252487,94325,1.41,0.14,-0.48,-103.37,-77.25,66.56,-26.44,-6.31,6.81,-0.19,-0.06,0.33,-140.31,41.13,196.06,7.50,8.38,-8.25,14,4
1772051417.442280,94515,0.36,-0.23,0.51,-82.25,-78.25,61.38,-27.00,-0.06,-6.37,-0.08,-0.02,-0.11,-139.25,41.56,194.19,-0.50,9.06,0.37,14,4
1772051417.632184,94705,-0.40,0.18,0.17,-82.25,-79.00,59.25,6.19,10.88,6.25,0.24,-0.16,0.11,-139.37,42.69,192.81,-3.25,-1.81,6.69,12,4
1772051417.823919,94897,-0.18,0.00,0.07,-102.00,-77.37,59.25,23.87,25.94,11.94,0.17,-0.12,-0.04,-139.62,43.38,191.25,7.50,3.94,-1.69,12,4
1772051418.015146,95088,0.41,-0.13,-0.30,-116.31,-75.00,59.19,-4.50,9.44,1.87,-0.32,0.22,0.39,-139.75,43.69,191.50,-9.31,-5.56,0.19,11,4
1772051418.206675,95279,-0.11,-0.06,0.16,-120.37,-74.87,59.94,7.44,-6.31,-9.31,0.00,-0.20,0.08,-140.25,43.25,190.44,8.44,8.13,-1.56,10,4
1772051418.396471,95469,-0.14,0.16,-0.05,-124.75,-75.81,63.69,15.94,4.94,-1.00,0.48,-0.21,-0.12,-141.56,44.06,186.81,-4.12,-5.25,11.88,12,4
1772051418.585960,95659,0.13,-0.07,-0.08,-133.94,-76.37,67.87,15.38,7.31,-12.50,0.09,-0.15,-0.07,-143.25,43.81,188.75,-3.56,-15.44,11.25,14,4
1772051418.777870,95850,-0.10,-1.05,-0.06,-144.44,-76.87,72.94,16.00,-1.75,-0.56,-0.23,-0.25,-0.03,-143.75,43.81,190.12,-1.25,4.50,4.25,14,4
1772051418.968695,96041,-0.54,-0.04,-0.22,-138.44,-75.94,71.81,-1.25,-5.31,5.25,0.39,-0.14,-0.16,-143.25,45.19,189.37,2.37,5.62,-1.62,12,4
1772051419.159523,96232,0.35,-0.19,0.00,-137.56,-75.81,71.06,-2.37,-5.25,-5.87,-0.09,0.15,0.15,-142.94,44.81,188.81,7.37,6.75,-6.06,11,4
1772051419.349081,96422,-0.23,0.04,-0.04,-134.62,-76.62,70.44,-8.81,-4.00,6.75,0.23,-0.16,0.20,-142.00,45.44,186.81,4.56,9.06,-4.06,11,3
1772051419.539257,96612,0.30,-0.06,-0.22,-127.19,-76.44,66.94,-17.87,-11.81,-1.12,0.15,-0.14,-0.06,-141.87,45.38,186.12,13.00,6.25,-6.75,10,3
1772051419.730936,96804,0.01,0.13,0.08,-122.12,-77.87,66.12,10.13,3.87,-7.94,-0.12,0.07,-0.07,-142.31,45.31,184.62,-3.06,-2.12,-1.37,10,2
1772051419.922718,96996,0.03,-0.29,-0.04,-111.37,-79.62,63.81,-63.94,-32.13,-10.44,0.43,-0.43,-0.25,-142.69,45.06,184.19,10.31,4.50,0.44,7,2
1772051420.113318,97186,0.08,0.10,0.10,-94.50,-80.62,59.31,9.00,0.94,3.87,-0.18,0.17,0.00,-142.50,44.75,184.94,-2.62,-0.69,-1.31,7,2
1772051420.302453,97376,-0.25,0.50,0.33,-100.31,-79.81,61.63,31.81,11.63,6.56,0.07,-0.04,0.00,-142.12,44.94,184.94,0.25,3.25,0.44,5,2
1772051420.492580,97565,0.21,-0.60,-0.35,-116.87,-77.50,68.06,31.94,7.87,4.56,0.11,-0.09,-0.01,-141.94,45.38,184.56,-2.94,0.19,2.00,4,2
1772051420.684491,97757,-0.03,-0.01,0.03,-123.00,-77.31,69.81,-6.81,0.06,0.31,-0.09,0.04,0.01,-142.00,45.38,184.87,1.00,-1.37,-0.25,4,2
1772051420.875812,97948,-0.14,0.29,0.10,-124.06,-76.94,68.75,-0.13,8.94,-0.13,0.05,-0.03,0.02,-142.62,45.44,183.94,-0.19,-0.75,0.13,3,3
1772051421.066714,98139,-0.08,-0.12,-0.18,-129.75,-76.37,69.37,1.19,2.19,-3.69,0.17,-0.06,0.00,-142.75,45.50,183.44,0.69,-0.50,-0.19,2,3
1772051421.256027,98329,0.02,-0.10,0.01,-131.12,-76.12,68.81,-7.75,3.62,3.19,0.01,-0.01,-0.02,-142.87,45.31,183.81,0.06,0.56,-0.69,2,3
1772051421.446132,98519,-0.04,0.10,0.02,-128.87,-75.75,66.69,-3.62,-1.75,2.69,0.07,-0.02,-0.01,-142.62,45.56,183.44,-0.44,1.37,-0.69,3,4
1772051421.637600,98711,0.00,0.00,-0.03,-127.37,-75.44,65.56,-4.44,0.37,1.44,0.02,0.04,0.02,-142.50,45.63,183.56,-1.06,-0.56,0.06,3,4
1772051421.829304,98902,0.18,-0.12,-0.18,-124.19,-75.56,64.69,-6.31,-8.13,0.88,0.02,0.00,0.02,-142.37,45.69,183.62,-0.06,0.94,-1.12,3,4
1772051422.020899,99093,-0.33,0.16,0.24,-108.75,-78.19,61.31,-45.19,-21.06,-13.38,0.15,-0.04,0.00,-142.12,45.69,183.56,-1.50,-1.19,-3.12,3,4
1772051422.210130,99283,-0.10,0.16,0.08,-94.56,-79.31,57.81,-4.25,-5.87,1.12,0.00,-0.04,-0.03,-141.37,44.81,184.56,1.56,-0.13,-7.31,3,3
1772051422.399721,99473,-0.03,0.04,0.19,-91.44,-79.06,56.94,-7.69,2.00,-1.50,-0.14,0.01,-0.06,-141.19,44.06,184.62,2.25,-0.62,-4.37,3,4
1772051422.591373,99664,-0.12,0.32,0.21,-93.75,-79.12,56.44,10.38,7.94,2.37,-0.02,0.02,-0.01,-140.94,43.94,184.62,-0.25,1.81,-1.12,4,4
1772051422.782155,99855,0.00,0.30,0.22,-105.00,-76.87,58.94,43.56,13.06,15.81,0.08,-0.03,0.05,-140.75,44.06,184.94,1.37,1.12,-0.19,4,3
1772051422.973461,100046,0.26,-0.40,-0.32,-115.94,-75.06,63.00,4.06,0.56,-1.94,0.07,-0.11,-0.01,-141.12,44.13,184.69,0.69,1.31,2.44,5,4
1772051423.164460,100237,0.02,0.14,0.08,-114.81,-75.94,63.00,-0.37,-1.12,0.94,-0.01,-0.04,-0.06,-141.19,44.31,184.31,-0.25,-0.81,-0.69,5,4
1772051423.354148,100427,0.14,-0.64,-0.17,-110.37,-76.62,62.88,-17.62,-16.75,-6.19,-0.09,-0.26,-0.13,-141.06,43.94,184.31,2.19,4.12,-1.37,4,4
1772051423.545716,100619,-0.30,0.32,0.19,-95.25,-77.19,59.38,-12.00,-4.56,0.62,0.09,-0.11,0.02,-140.50,44.38,184.56,-0.62,1.81,-0.31,4,5
1772051423.736617,100810,0.00,0.08,0.05,-95.12,-76.87,58.50,2.56,2.12,-1.81,0.07,-0.05,0.01,-140.31,44.38,184.75,0.25,0.88,-1.56,4,5
1772051423.928263,101001,-0.06,0.05,-0.02,-98.87,-77.00,59.25,4.56,1.12,-0.13,0.05,-0.09,0.13,-140.19,44.50,184.50,0.62,0.62,0.00,5,5
1772051424.117858,101191,-0.11,-0.02,0.11,-100.81,-76.87,59.31,1.44,3.50,-1.44,-0.07,-0.09,-0.09,-140.69,44.25,184.19,2.87,0.56,-1.19,4,6
1772051424.307364,101380,-0.13,0.07,0.04,-106.19,-76.69,60.75,19.25,5.06,3.44,0.03,-0.05,-0.03,-140.87,44.31,183.94,-0.19,-0.75,-0.19,5,5
1772051424.499234,101572,0.10,-0.22,-0.12,-111.87,-76.31,62.88,-2.56,2.25,0.00,0.06,-0.03,0.00,-140.87,44.06,184.56,-2.69,-1.50,2.31,4,6
1772051424.690874,101764,0.00,0.04,0.02,-111.31,-76.19,62.00,-2.94,0.62,-0.31,0.00,-0.05,-0.13,-140.94,44.38,184.37,0.19,0.69,1.25,4,6
1772051424.883031,101956,0.05,-0.05,-0.06,-109.56,-76.44,61.50,-2.62,-6.06,-0.62,0.03,-0.08,0.04,-141.00,44.50,184.25,0.06,1.00,2.31,3,5
1772051425.074024,102147,0.02,-0.33,-0.08,-105.87,-76.87,61.25,-9.94,-1.69,-2.06,0.07,-0.04,0.03,-141.06,44.63,184.25,0.94,-0.75,0.88,3,5
1772051425.263351,102336,-0.17,0.07,-0.04,-101.44,-78.12,59.19,-11.63,-1.69,-5.19,0.43,-0.35,-0.14,-140.94,44.56,184.50,-2.00,0.00,0.00,4,5
1772051425.454824,102528,-0.05,0.20,0.22,-102.69,-78.12,58.75,9.50,5.12,1.44,-0.07,0.01,0.00,-140.56,44.63,184.87,-1.25,-0.31,1.62,4,4
1772051425.646696,102720,0.02,-0.21,-0.08,-108.06,-77.31,60.75,8.19,0.62,1.06,0.00,-0.08,0.03,-140.62,44.63,185.00,-0.69,-1.50,0.75,4,4
1772051425.838014,102911,-0.01,-0.11,-0.07,-109.94,-77.69,61.25,0.75,1.19,-5.00,0.07,-0.08,0.00,-140.69,44.31,185.25,1.44,1.31,-2.19,3,3
1772051426.026869,103100,0.01,0.05,0.02,-111.19,-77.94,61.63,-1.50,0.31,0.25,0.05,0.00,0.08,-141.31,44.31,184.00,2.25,-1.25,0.00,4,3
1772051426.216619,103290,0.04,-0.04,0.00,-112.31,-77.81,61.75,2.50,1.44,-0.81,-0.03,-0.09,-0.08,-141.69,44.38,183.06,-0.44,-0.50,1.31,3,3
1772051426.409252,103482,0.05,-0.08,-0.03,-113.25,-77.81,62.50,8.13,-2.44,-0.13,0.12,0.00,0.07,-141.69,44.44,183.56,-1.62,-1.62,0.00,3,2
1772051426.602027,103675,0.03,-0.17,-0.11,-111.50,-78.19,63.06,-2.69,-4.87,-0.13,0.08,-0.11,0.01,-141.62,44.31,183.75,0.19,0.13,-1.19,3,2
1772051426.793458,103866,-0.13,0.25,0.13,-103.87,-78.87,61.56,-12.00,-4.75,-2.81,0.00,-0.06,0.00,-141.50,44.25,183.94,-1.25,0.37,-0.69,3,2
1772051426.982700,104056,-0.13,0.00,0.12,-103.31,-78.87,61.31,6.44,3.56,1.50,0.28,-0.16,-0.12,-141.06,44.38,184.56,-3.31,1.19,-0.19,3,2
1772051427.171938,104245,0.12,0.25,0.11,-109.56,-78.06,61.63,3.06,3.06,1.75,0.00,-0.03,0.00,-141.06,44.75,184.00,1.81,0.31,3.25,3,2
1772051427.364608,104438,0.04,-0.27,-0.12,-114.50,-77.31,63.69,16.56,3.31,-1.87,0.23,-0.18,0.00,-141.50,44.69,183.87,-0.37,-2.00,0.25,3,2
1772051427.556593,104629,0.01,-0.14,-0.14,-121.31,-77.69,65.87,1.31,0.37,-1.56,0.03,-0.09,-0.08,-141.69,44.56,184.31,2.12,-1.19,-2.06,4,3
1772051427.747803,104821,0.09,-0.08,0.10,-121.25,-78.19,66.12,-1.75,-4.69,-1.75,0.06,-0.10,-0.01,-142.12,44.50,183.31,5.00,2.06,2.31,4,3
1772051427.938735,105012,0.01,0.16,0.00,-118.62,-78.12,65.50,-1.37,4.37,2.50,0.07,-0.07,-0.03,-142.62,44.75,182.56,-0.88,-1.81,1.00,4,3
1772051428.128995,105202,0.00,-0.06,-0.06,-121.44,-77.87,65.69,3.44,1.69,-1.00,0.06,-0.05,0.00,-142.81,44.75,182.69,0.19,0.13,0.00,4,2
1772051428.319444,105393,0.03,-0.08,-0.05,-122.37,-78.00,66.19,0.00,0.37,0.56,0.05,-0.03,0.00,-142.75,44.75,182.69,-0.06,0.56,0.13,6,4
1772051428.511214,105584,-0.04,0.02,-0.07,-121.56,-77.87,65.87,-1.00,0.75,0.75,0.07,-0.02,0.00,-142.56,44.75,182.87,-0.88,0.19,-2.19,5,4
1772051428.703432,105776,0.20,-0.45,-0.25,-119.44,-78.00,65.19,-10.50,-7.69,1.50,0.07,-0.07,-0.01,-142.12,44.31,183.56,-0.44,-1.37,-3.00,5,4
1772051428.894996,105968,-0.27,0.51,0.32,-101.56,-80.25,60.19,-31.44,-16.62,-5.87,0.02,-0.02,0.02,-142.00,44.13,183.69,-0.31,-0.69,-3.12,5,4
1772051429.083916,106157,-0.06,0.14,0.28,-87.37,-80.12,58.38,0.69,-7.19,2.94,0.01,-0.04,0.04,-141.69,43.94,184.00,-0.25,0.88,-0.88,5,4
1772051429.273821,106347,-0.17,0.07,0.12,-86.62,-79.50,58.75,8.06,7.56,2.50,0.08,-0.06,0.13,-141.56,44.06,183.81,-0.75,0.62,0.13,6,4
1772051429.466058,106539,0.21,0.03,0.00,-103.75,-77.62,59.88,28.94,21.50,12.94,0.00,-0.01,0.03,-141.50,44.00,184.12,0.25,0.44,1.00,5,3
1772051429.658503,106732,0.10,-0.13,-0.17,-115.44,-75.62,62.13,8.56,7.94,2.75,0.04,-0.03,-0.02,-141.69,44.19,183.94,0.31,0.13,1.37,5,3
1772051429.851052,106924,0.08,0.03,-0.07,-119.69,-75.37,62.50,2.19,0.69,-2.62,0.03,0.00,0.02,-141.81,44.38,183.62,-0.44,0.50,0.81,4,3
1772051430.043973,107117,0.03,0.03,-0.02,-121.06,-75.81,63.19,1.25,0.50,-1.44,0.02,-0.03,0.02,-141.87,44.38,183.56,-0.06,-0.31,-0.44,4,3
1772051430.234572,107308,-0.02,-0.01,-0.06,-121.37,-76.12,63.63,-1.31,-1.19,-0.06,0.08,-0.06,0.02,-141.81,44.38,183.62,0.00,0.25,0.50,3,2
1772051430.426302,107499,-0.03,0.03,-0.03,-120.44,-76.25,63.50,-0.50,-0.75,0.25,0.05,0.00,0.03,-141.81,44.38,183.62,-0.13,-0.25,0.25,3,2
1772051430.617733,107691,0.00,0.02,-0.05,-120.31,-76.31,63.56,-0.25,0.00,-0.25,0.09,-0.04,0.00,-141.87,44.38,183.62,0.19,-0.13,0.00,3,2
1772051430.809642,107883,0.05,-0.08,-0.12,-119.87,-76.37,63.69,-0.62,-2.31,-0.44,0.09,-0.06,0.02,-141.81,44.38,183.62,0.19,0.19,-0.44,3,2
1772051430.999790,108073,0.14,-0.39,-0.11,-114.37,-77.37,63.00,-20.75,-16.19,-5.25,0.13,-0.14,0.04,-141.62,44.19,183.94,0.88,-0.13,-1.75,3,2
1772051431.190240,108263,-0.09,0.23,0.27,-103.44,-79.44,60.75,-8.13,-5.19,-5.06,-0.05,0.00,0.03,-141.31,43.88,184.44,0.13,-0.19,-0.94,3,2
1772051431.380485,108454,-0.13,0.26,0.13,-102.12,-79.19,61.56,18.00,4.50,3.19,0.08,-0.10,0.00,-141.19,43.94,184.56,-0.31,1.69,1.19,3,2
1772051431.571583,108645,0.04,-0.25,-0.20,-111.25,-78.19,65.44,18.00,5.94,1.94,0.05,-0.09,0.00,-141.25,44.25,184.12,0.19,-0.31,1.37,3,2
1772051431.762888,108836,-0.03,-0.07,-0.08,-115.69,-78.00,66.87,2.56,0.88,-1.69,0.06,-0.06,-0.01,-141.37,44.38,184.06,-1.44,-1.44,1.06,4,3
1772051431.953642,109026,-0.01,-0.07,-0.03,-116.87,-78.00,67.12,-1.31,-1.12,-0.88,0.07,-0.06,-0.05,-141.44,44.31,184.12,-1.00,-0.62,0.25,4,3
1772051432.143333,109217,0.00,0.00,-0.01,-116.69,-77.94,66.69,-1.56,0.88,0.81,0.05,-0.04,0.00,-141.37,44.31,184.19,-0.44,0.00,-0.06,3,3
1772051432.334166,109407,-0.03,-0.01,-0.04,-116.81,-77.81,66.37,-0.94,0.25,0.31,0.06,-0.08,0.01,-141.37,44.31,184.19,-0.19,0.13,0.31,3,3
1772051432.525245,109598,0.04,0.01,-0.03,-117.00,-77.75,66.12,-0.31,0.00,-0.19,0.04,-0.04,-0.01,-141.37,44.31,184.19,-0.31,0.13,0.00,3,3
1772051432.716957,109790,-0.01,0.06,-0.04,-116.94,-77.75,66.06,-0.75,0.13,0.06,0.06,-0.03,-0.01,-141.37,44.31,184.19,-0.19,-0.37,-0.06,4,3
1772051432.909592,109983,0.01,-0.02,-0.12,-116.62,-77.81,66.00,-1.25,-1.44,0.00,0.05,-0.06,-0.02,-141.37,44.31,184.31,-0.31,-0.69,-0.13,4,3
1772051433.098929,110172,-0.09,0.06,0.05,-112.37,-78.25,65.69,-2.50,-4.75,-0.75,0.02,0.01,0.05,-141.37,44.31,184.25,-0.37,-0.19,0.31,4,3
1772051433.288768,110362,0.07,-0.16,-0.03,-110.19,-78.56,65.50,-5.62,-1.75,-1.25,0.05,-0.14,-0.04,-141.50,44.50,184.19,-4.94,0.44,9.38,4,3
1772051433.480047,110553,-0.14,0.01,-0.09,-107.87,-79.12,65.31,3.75,0.75,-1.69,0.00,-0.04,0.03,-141.12,44.75,184.50,-2.12,-0.88,-0.88,4,3
1772051433.673132,110747,0.10,-0.06,-0.02,-112.31,-79.00,66.50,7.06,2.56,0.19,0.02,0.00,0.03,-140.94,44.75,184.75,0.75,0.37,-0.56,3,2
1772051433.867564,110941,-0.01,-0.05,-0.09,-113.62,-79.00,67.00,-2.00,0.25,-0.06,0.06,0.03,0.04,-141.06,44.69,184.62,1.19,-0.44,1.00,3,2
1772051434.056891,111130,-0.13,0.15,0.05,-113.00,-79.00,66.50,-3.19,0.81,-0.56,0.03,-0.07,0.00,-141.94,44.75,183.12,4.50,-1.25,-1.25,3,2
1772051434.246499,111320,-0.01,0.06,-0.12,-116.75,-79.12,66.56,0.94,5.81,-2.31,0.07,-0.03,0.00,-142.37,44.44,183.44,-0.31,-1.87,-0.13,4,2
1772051434.440006,111513,0.00,-0.04,-0.01,-120.75,-79.25,67.44,3.00,-0.56,-1.25,0.05,0.00,0.00,-142.37,44.38,183.56,0.06,-0.06,-0.25,3,1
1772051434.631169,111704,0.01,-0.04,-0.07,-121.12,-79.31,67.75,-0.13,0.62,0.37,0.05,-0.04,0.00,-142.37,44.38,183.56,-0.06,0.44,0.06,3,1
1772051434.822183,111895,-0.02,0.02,-0.03,-120.56,-79.19,67.50,-0.44,-0.50,0.94,0.05,0.00,0.04,-142.37,44.38,183.56,-0.13,0.25,-0.62,2,1
1772051435.011844,112085,0.08,-0.02,-0.15,-119.25,-79.06,66.94,-2.19,-2.69,0.88,0.02,0.00,0.04,-142.25,44.31,183.69,-0.06,-0.50,-1.62,3,1
1772051435.201332,112274,-0.13,0.21,0.04,-109.19,-79.62,64.62,-22.75,-12.50,-1.94,0.07,-0.05,-0.01,-142.06,44.13,184.06,-1.31,-0.19,-1.19,3,1
1772051435.393410,112467,-0.04,0.09,0.11,-100.87,-79.94,63.25,2.06,-0.81,-0.44,0.00,0.00,0.04,-141.62,44.06,184.50,1.62,2.37,-2.00,3,1
1772051435.584264,112658,-0.01,0.10,0.00,-102.87,-79.94,63.75,2.81,3.37,1.37,0.02,0.05,0.08,-141.19,44.13,184.69,0.25,1.19,0.81,3,1
1772051435.775692,112849,0.13,0.12,0.00,-107.81,-79.69,64.37,7.56,4.62,-1.87,0.03,0.00,-0.01,-141.44,44.13,184.81,-4.00,-3.62,3.44,2,1
1772051435.965422,113039,0.02,-0.26,-0.09,-113.44,-80.06,66.81,8.13,0.50,-2.94,-0.09,0.02,0.06,-141.81,43.94,184.81,5.81,-0.25,-0.88,3,1
1772051436.154708,113228,-0.15,0.16,0.00,-114.31,-80.37,67.19,-2.37,3.06,1.62,0.12,-0.03,0.05,-142.50,43.94,184.12,-2.56,-2.56,2.31,2,1
1772051436.346924,113420,0.14,0.03,-0.09,-118.12,-79.62,66.69,-2.75,2.50,2.12,0.00,0.00,-0.03,-142.56,43.88,184.50,-0.19,0.62,0.13,3,1
1772051436.537740,113611,-0.06,0.00,0.02,-116.62,-79.44,66.31,0.37,-0.94,0.56,0.00,0.02,0.07,-142.50,44.00,184.44,-0.81,0.44,0.06,3,1
1772051436.728761,113802,-0.01,0.12,-0.04,-116.06,-79.25,66.12,-0.88,-0.06,1.56,0.10,0.00,0.05,-142.44,44.00,184.44,0.00,-0.25,0.13,3,1
1772051436.919476,113993,0.03,0.04,-0.04,-116.25,-79.25,66.12,1.62,-1.12,-0.75,0.03,0.01,0.10,-142.50,43.94,184.62,0.25,0.50,-0.19,3,1
1772051437.109339,114183,0.04,0.05,-0.05,-114.06,-79.37,66.06,-2.62,-3.37,0.13,0.07,-0.02,0.05,-142.37,43.88,184.75,-0.81,-0.31,-1.62,2,1
1772051437.300955,114374,-0.01,0.12,0.01,-109.62,-79.81,65.12,-8.94,-3.81,-0.75,0.02,-0.01,0.06,-142.12,43.69,185.12,-0.31,-0.06,-0.56,2,1
1772051437.491416,114565,-0.04,0.10,0.01,-105.25,-80.00,64.19,-2.87,-1.25,0.06,0.04,0.00,0.06,-141.87,43.63,185.50,-1.31,0.31,0.50,2,1
1772051437.682230,114756,0.04,0.09,-0.02,-105.44,-79.87,64.25,2.37,1.62,-0.31,0.03,0.04,0.08,-141.69,43.63,185.87,-0.44,0.37,0.00,2,1
1772051437.873055,114947,0.00,-0.09,-0.08,-106.69,-79.75,65.37,8.44,0.50,2.62,0.03,0.08,0.09,-141.62,43.69,185.87,1.31,0.56,-0.44,3,2
1772051438.062882,115136,-0.04,0.15,0.06,-106.19,-79.75,65.44,-1.81,0.00,-0.31,0.09,0.00,0.01,-141.94,43.69,185.25,-0.31,-1.81,0.19,3,2
1772051438.254138,115328,-0.01,0.00,-0.03,-107.56,-79.81,65.50,-0.56,1.81,0.13,0.10,0.00,0.05,-142.00,43.63,185.37,0.13,-0.56,0.37,4,2
1772051438.444904,115518,-0.02,0.03,-0.03,-108.94,-79.75,65.56,1.44,1.31,-0.94,0.02,0.00,0.05,-142.00,43.63,185.37,0.25,-0.56,0.00,3,2
1772051438.635976,115709,-0.03,0.00,-0.03,-109.94,-79.87,65.87,0.69,0.69,-0.25,0.08,-0.01,0.03,-142.00,43.63,185.37,-0.06,-0.13,0.06,4,2
1772051438.826685,115900,0.01,0.04,-0.05,-110.50,-79.81,65.87,-0.19,-0.19,-0.13,0.08,-0.03,0.06,-142.00,43.63,185.37,0.25,0.44,-0.19,3,2
1772051439.017208,116091,0.07,0.05,-0.12,-110.19,-79.81,65.81,-1.00,-1.56,0.06,0.05,-0.01,0.09,-142.00,43.63,185.50,-0.06,0.00,-0.06,3,2
1772051439.208407,116282,-0.10,0.11,0.07,-104.37,-80.12,64.50,-17.12,-5.00,-3.00,0.06,-0.05,0.04,-142.00,43.56,185.56,-0.13,-0.81,-0.44,3,2
1772051439.398786,116472,-0.02,0.05,0.08,-101.62,-80.25,63.31,2.94,-0.13,-0.19,0.20,-0.03,0.22,-142.06,43.44,185.56,3.12,0.25,-1.25,3,2
1772051439.589329,116663,-0.04,0.17,-0.09,-104.87,-80.00,63.31,0.62,4.00,-1.94,0.07,0.00,0.08,-142.50,43.13,185.44,1.56,-1.75,-1.12,3,2
1772051439.779083,116852,0.00,-0.05,-0.02,-108.81,-80.44,64.44,5.37,-2.12,-1.06,-0.02,-0.01,0.04,-142.81,42.94,185.25,1.56,-0.06,0.25,2,1
1772051439.968115,117042,0.01,0.07,0.02,-107.37,-80.50,65.31,5.75,-1.00,2.81,0.04,0.03,0.10,-142.75,43.25,185.44,-2.25,-0.56,2.50,2,1
1772051440.161065,117234,-0.02,0.00,-0.10,-108.31,-80.31,65.81,2.62,2.31,-1.12,0.08,-0.01,0.13,-142.81,43.31,185.50,-0.50,-0.50,0.00,1,1
1772051440.352223,117425,0.01,-0.04,-0.09,-110.94,-80.31,66.31,0.81,-0.81,-0.31,0.05,0.03,0.11,-142.81,43.31,185.50,0.13,0.37,-0.50,2,1
1772051440.542725,117616,-0.01,0.01,-0.02,-110.37,-80.25,66.06,-1.37,0.44,0.94,0.05,0.02,0.10,-142.75,43.31,185.56,-0.06,0.06,-0.62,1,1
1772051440.732258,117806,-0.01,0.00,0.00,-109.69,-80.12,65.75,-0.50,-1.44,0.31,0.07,0.03,0.15,-142.62,43.25,185.69,0.25,-2.25,-2.87,2,1
1772051440.922096,117995,-0.23,0.05,-0.12,-107.94,-79.81,65.06,-2.06,-0.13,2.37,0.04,-0.05,0.04,-142.69,42.25,187.19,-2.00,-1.00,-0.94,2,2
1772051441.114493,118188,0.11,-0.26,0.05,-103.81,-79.94,64.69,-8.88,-14.31,0.75,0.11,-0.02,0.07,-142.25,42.31,187.44,4.31,3.19,-0.81,1,2
1772051441.305574,118379,-0.37,0.16,0.00,-90.37,-80.62,63.13,-5.94,-3.19,-1.69,0.09,-0.01,0.16,-142.25,42.75,186.44,1.94,2.00,-2.44,2,4
1772051441.496232,118570,-0.08,0.00,0.06,-92.19,-80.44,62.56,0.69,-2.44,-0.37,-0.02,-0.03,0.09,-141.81,42.63,187.06,0.62,2.31,-1.81,2,4
1772051441.685494,118759,0.23,0.07,-0.25,-94.00,-80.19,62.38,0.88,4.75,5.94,0.11,0.05,0.23,-141.25,42.69,187.62,-2.06,-1.31,0.37,3,4
1772051441.875219,118949,0.35,0.59,-0.01,-88.87,-79.56,62.06,7.19,-12.06,3.50,-0.05,0.09,0.06,-140.81,42.50,188.87,-1.31,-0.88,1.06,4,5
1772051442.068129,119141,-0.24,-0.20,0.04,-72.75,-78.19,66.62,30.81,-23.25,-0.75,0.20,-0.04,0.27,-140.62,42.69,189.31,-0.62,-2.06,1.06,4,6
1772051442.259198,119332,-0.32,-0.42,-0.09,-62.94,-77.69,70.50,6.25,-3.50,-0.81,0.21,-0.09,0.10,-140.62,42.44,190.25,-4.50,1.44,1.19,4,7
1772051442.449265,119523,0.25,0.30,-0.13,-65.37,-77.81,69.37,-4.50,8.56,6.56,0.37,-0.05,0.25,-139.81,43.38,190.87,4.19,1.44,2.19,4,9
1772051442.639310,119712,-0.50,-0.67,0.35,-73.31,-78.81,70.00,3.62,23.94,-5.62,-0.07,-0.01,-0.46,-141.62,42.38,188.69,9.50,-8.13,-9.13,5,10
1772051442.828441,119902,0.36,0.28,-0.40,-101.50,-79.19,67.56,-4.56,24.81,-3.81,-0.09,0.10,0.15,-141.94,42.31,187.69,-0.94,-0.13,0.19,5,9
1772051443.021532,120095,-0.07,-0.02,-0.05,-107.56,-78.50,66.19,-8.56,-3.50,0.13,0.19,-0.17,0.05,-141.87,42.31,187.25,4.00,-0.31,-4.37,5,9
1772051443.212314,120286,0.04,0.07,-0.04,-102.37,-78.75,64.00,-15.69,-9.31,0.81,0.01,-0.01,0.03,-141.81,42.44,187.06,2.37,1.37,-2.62,4,8
1772051443.403152,120476,-0.11,0.03,0.09,-95.44,-79.06,62.75,-1.62,-5.94,-1.37,-0.06,0.04,0.02,-141.37,42.00,187.81,0.06,0.25,-2.94,4,7
1772051443.592674,120666,-0.36,0.23,0.15,-86.69,-79.44,61.94,-11.00,-6.12,-3.62,0.13,-0.03,0.08,-141.06,42.13,188.12,-0.94,1.94,-0.37,3,8
1772051443.781777,120855,0.25,0.05,0.02,-89.50,-79.56,61.25,-0.44,4.44,-0.81,0.04,0.06,0.09,-140.62,42.56,188.00,-0.69,2.37,2.12,3,7
1772051443.974411,121048,-0.16,0.44,0.10,-93.37,-79.62,61.94,10.56,8.88,2.19,0.09,-0.01,0.11,-140.69,43.06,187.44,1.12,0.44,1.87,4,7
1772051444.165819,121239,0.07,-0.29,-0.25,-103.56,-78.81,64.06,2.81,-0.44,-0.19,0.00,0.08,0.05,-140.87,43.00,187.50,1.44,-1.75,-0.06,4,7
1772051444.356751,121430,-0.08,0.02,0.08,-100.94,-79.44,63.94,-2.06,-0.62,-2.87,0.02,-0.02,-0.02,-141.44,42.81,186.62,0.50,-2.62,-1.56,4,4
1772051444.546222,121620,-0.04,-0.07,-0.02,-101.62,-79.75,64.44,0.62,1.00,-1.87,-0.02,0.02,0.04,-141.56,42.63,186.75,2.87,0.94,-1.81,3,3
1772051444.735170,121809,-0.03,0.01,0.01,-102.50,-79.69,64.44,0.56,-2.44,3.44,0.01,0.00,0.04,-141.50,42.56,186.75,-1.87,-0.25,1.37,2,3
1772051444.928063,122002,0.16,-0.08,-0.08,-100.12,-79.37,63.88,-3.62,-4.25,1.37,-0.08,0.01,0.05,-141.31,42.56,187.00,-1.12,0.06,0.25,2,3
1772051445.119048,122193,-0.21,0.27,0.12,-91.44,-79.56,62.19,-10.00,-2.12,-1.06,0.06,0.02,0.07,-141.25,42.69,187.19,-1.06,0.44,0.88,3,3
1772051445.309898,122383,-0.06,0.02,0.02,-92.50,-79.62,62.00,1.25,0.37,-0.94,0.03,-0.04,0.01,-141.25,42.81,187.12,-1.00,-0.31,0.62,3,3
1772051445.500269,122574,0.00,0.05,-0.07,-94.50,-79.62,61.75,-1.87,3.19,0.88,0.05,0.00,0.09,-141.25,42.94,187.31,0.25,0.19,0.13,4,3
1772051445.691015,122765,0.00,0.02,0.00,-95.94,-79.56,61.63,-0.69,-0.06,0.13,0.03,0.03,0.10,-141.25,42.94,187.31,0.50,0.37,0.13,4,3
1772051445.882131,122956,-0.04,0.02,0.00,-96.94,-79.56,61.69,1.31,2.87,-0.06,0.05,0.04,0.09,-141.25,42.88,187.25,0.06,-0.31,-0.88,3,2
1772051446.072530,123146,0.16,-0.02,-0.11,-100.62,-79.19,62.00,5.19,1.50,2.19,0.09,0.04,0.10,-141.19,42.75,187.44,0.06,-0.25,0.69,3,2
1772051446.263162,123337,-0.10,0.00,-0.01,-99.56,-79.31,62.19,0.13,-0.75,0.31,0.03,0.00,0.03,-141.25,42.69,187.50,0.00,-0.62,0.37,3,3
1772051446.454063,123528,0.00,0.00,0.01,-99.75,-79.31,62.38,1.94,-0.19,-0.25,0.06,0.04,0.08,-141.25,42.69,187.62,0.44,-0.44,-0.13,3,3
1772051446.644799,123718,0.05,-0.04,-0.03,-98.75,-79.56,62.56,-3.25,-4.12,-0.88,0.13,0.00,0.09,-141.37,42.63,187.44,1.00,0.25,0.25,4,3
1772051446.835546,123909,0.05,-0.05,0.00,-96.94,-79.62,62.50,1.56,0.50,-1.00,0.01,0.00,0.07,-141.31,42.56,187.56,-0.50,0.37,0.19,4,2
1772051447.026093,124100,-0.13,0.02,0.04,-96.44,-79.50,62.19,-2.50,1.37,1.62,0.09,0.01,0.11,-141.25,42.69,187.50,-1.19,-0.56,0.19,3,2
1772051447.216993,124291,-0.18,0.01,0.02,-97.50,-79.37,62.06,1.50,-1.12,-2.56,0.04,0.02,0.06,-141.25,42.69,187.37,-0.31,-0.69,-0.50,4,2
1772051447.407369,124481,-0.02,0.04,0.01,-98.94,-79.25,62.06,-0.13,1.31,1.87,0.02,0.02,0.07,-141.31,42.81,187.25,0.50,0.37,1.37,4,3
1772051447.596758,124671,0.00,0.03,0.00,-101.00,-79.19,62.31,3.75,1.50,-1.25,0.06,0.03,0.10,-141.50,42.94,187.06,0.06,-0.25,1.87,4,2
1772051447.788820,124862,0.04,-0.01,-0.09,-104.94,-79.25,63.13,3.37,3.31,-1.75,0.07,0.01,0.12,-141.87,43.00,186.94,-0.19,-1.00,1.12,4,2
1772051447.979688,125053,-0.03,-0.03,-0.04,-106.62,-79.44,63.69,1.37,0.06,-1.31,0.04,0.04,0.07,-141.94,43.00,186.94,0.06,-0.31,0.37,4,2
1772051448.170446,125244,0.01,-0.04,-0.02,-106.62,-79.50,63.81,0.88,-0.19,-0.37,0.03,0.04,0.11,-141.94,43.00,186.94,-0.13,0.06,0.13,4,2
1772051448.359899,125433,0.10,-0.15,-0.23,-104.81,-79.44,63.50,-5.25,-4.81,1.37,0.05,0.00,0.13,-141.87,42.94,187.06,0.25,-0.19,-1.87,4,2
1772051448.550902,125624,-0.18,0.32,0.18,-93.87,-79.81,61.38,-13.69,-5.25,-1.06,0.03,0.07,0.13,-141.75,42.81,187.25,-0.06,0.31,-0.81,5,2
1772051448.742095,125816,-0.07,0.05,0.06,-90.87,-79.75,60.81,1.06,0.94,0.13,0.14,0.00,0.13,-141.56,42.88,187.50,-3.12,-0.62,1.19,5,3
1772051448.933247,126007,0.10,-0.03,-0.06,-94.12,-79.75,61.25,1.94,1.94,-2.12,-0.02,0.06,0.05,-141.44,42.81,187.75,0.00,-0.19,-0.88,6,3
1772051449.123548,126197,-0.14,0.20,0.09,-95.06,-79.87,62.00,9.44,2.69,1.12,0.07,0.03,0.12,-141.50,42.75,187.69,-1.50,-1.37,0.88,5,3
1772051449.314369,126388,0.22,-0.34,-0.11,-102.06,-79.37,64.50,15.56,-0.44,0.25,0.07,0.08,0.18,-141.56,42.69,187.81,0.94,0.31,0.94,4,2
1772051449.504133,126578,-0.03,0.01,0.03,-102.06,-79.75,65.44,-0.06,-0.31,0.13,0.10,0.01,0.14,-141.81,42.81,187.56,-1.25,-1.69,0.81,3,1
1772051449.695948,126769,0.02,-0.05,-0.03,-103.00,-79.87,65.62,0.13,-1.00,-2.19,0.09,0.01,0.07,-141.94,42.69,187.62,-0.06,-0.25,-0.06,3,2
1772051449.886572,126960,-0.06,0.01,-0.01,-102.31,-80.00,65.69,-0.13,-0.31,-0.37,0.09,0.07,0.17,-141.87,42.69,187.75,0.13,0.13,-0.25,4,2
1772051450.077100,127151,0.05,-0.07,-0.07,-102.69,-80.06,65.75,-2.00,-0.31,-1.25,0.03,0.09,0.13,-142.00,42.63,187.50,0.13,-0.06,-0.94,4,2
1772051450.266771,127340,-0.11,-0.15,-0.08,-97.62,-80.19,64.94,-14.06,-7.44,0.31,0.16,0.00,0.10,-141.81,42.63,187.37,0.31,-0.62,-1.31,4,2
1772051450.457201,127531,0.00,0.22,0.10,-91.44,-80.62,62.06,-11.69,0.25,-2.44,0.02,0.10,0.15,-141.56,42.56,187.81,-0.31,-0.13,0.19,3,2
1772051450.649216,127723,-0.10,0.11,0.01,-91.37,-80.69,61.63,3.81,2.25,-0.69,0.13,-0.03,0.11,-141.56,42.56,187.94,0.13,-1.25,0.62,4,2
1772051450.839728,127914,0.23,-0.29,-0.16,-102.56,-79.87,64.06,24.69,4.94,4.75,0.03,0.08,0.16,-141.69,42.63,188.00,-0.06,-1.56,1.75,3,2
1772051451.030503,128104,-0.07,0.06,0.02,-104.44,-80.12,65.69,-0.94,-0.94,0.06,0.05,0.04,0.03,-141.94,42.75,187.69,-0.13,-0.81,0.69,4,2
1772051451.220174,128294,-0.06,-0.17,-0.06,-105.19,-80.12,66.00,2.50,-0.25,-0.56,0.00,0.02,0.12,-141.87,42.75,187.81,1.75,1.25,-0.88,4,2
1772051451.409729,128483,-0.12,0.06,0.10,-104.00,-79.94,65.69,-3.56,-3.12,3.75,0.11,-0.02,0.15,-142.12,43.00,187.00,-0.31,-1.19,0.69,4,2
1772051451.602263,128676,0.03,0.03,-0.05,-104.56,-79.56,64.87,-1.37,1.69,-1.25,0.01,0.02,0.03,-142.19,43.00,186.94,-0.13,-0.94,0.69,5,2
1772051451.793332,128867,-0.01,-0.04,-0.04,-105.19,-79.69,65.12,-0.56,-0.37,-0.62,0.03,0.04,0.07,-142.19,42.94,187.06,1.12,-0.13,-1.25,4,2
1772051451.984099,129058,-0.12,0.13,0.00,-101.81,-79.94,64.87,-1.44,-2.00,-0.31,-0.03,0.04,0.04,-142.06,42.81,187.25,-0.25,0.31,-1.19,4,2
1772051452.173832,129247,-0.02,-0.10,-0.04,-98.94,-80.06,64.75,-9.31,-4.69,0.25,0.12,0.00,0.03,-141.75,42.75,187.62,-2.44,-0.56,-0.44,4,1
1772051452.364505,129438,0.00,0.02,0.02,-93.50,-80.56,62.75,-19.94,-4.75,-3.94,0.00,0.06,0.08,-141.31,42.63,188.31,-0.62,-0.62,-0.62,4,1
1772051452.555758,129630,-0.27,0.22,0.37,-88.12,-80.56,61.13,6.00,2.19,2.19,0.00,0.10,0.08,-141.25,42.56,188.37,0.69,0.50,-0.50,4,1
1772051452.746552,129820,0.16,-0.15,-0.12,-101.06,-78.75,63.38,33.25,9.44,10.63,0.02,0.05,0.05,-141.37,42.63,188.25,-0.31,0.25,0.50,3,1
1772051452.937630,130011,0.04,-0.32,-0.10,-108.62,-78.37,66.19,-0.94,0.31,-1.12,0.08,-0.06,0.05,-141.62,42.88,187.56,3.44,-0.31,1.56,3,1
1772051453.128160,130202,-0.01,-0.03,-0.06,-108.94,-78.62,65.81,1.56,-2.06,-2.50,0.06,0.00,0.09,-141.81,42.81,187.50,0.69,-0.25,1.06,3,1
1772051453.318900,130393,0.06,0.01,-0.04,-109.37,-78.87,66.06,1.06,-0.25,-0.44,0.01,0.05,0.09,-141.87,42.75,187.62,-0.50,-0.13,0.13,3,1
1772051453.509621,130583,0.08,0.00,-0.09,-108.06,-78.94,66.00,-3.56,-3.25,0.19,0.00,0.05,0.06,-141.87,42.75,187.62,-0.31,0.00,-0.37,3,1
1772051453.700442,130774,-0.11,0.12,0.02,-100.44,-79.81,64.87,-15.06,-6.50,-4.75,0.00,0.03,0.06,-141.81,42.75,187.75,-1.37,-0.31,-0.19,3,1
1772051453.891351,130965,-0.04,0.12,-0.04,-96.94,-80.56,63.69,-5.44,-0.56,-1.31,0.00,-0.02,0.00,-141.50,42.75,188.31,-0.56,-0.50,-0.69,3,1
1772051454.080831,131154,-0.11,-0.10,0.15,-95.56,-80.62,63.75,-1.12,-2.25,-0.06,0.06,0.03,0.09,-141.31,42.81,188.06,-1.31,-0.19,1.94,4,2
1772051454.271242,131345,-0.01,0.13,-0.02,-96.81,-80.12,63.13,1.25,5.50,1.19,-0.06,0.04,0.03,-141.12,42.94,188.44,0.31,-0.19,-0.69,4,2
1772051454.462930,131537,0.06,-0.10,-0.02,-100.44,-79.87,63.69,5.87,0.69,-3.31,0.09,0.00,0.12,-141.06,42.94,188.37,-0.88,0.31,0.19,4,2
1772051454.653481,131727,0.03,-0.02,-0.10,-103.19,-79.31,64.56,4.56,0.69,3.37,0.13,0.01,0.16,-140.81,43.00,188.50,0.62,0.25,0.06,4,2
1772051454.844277,131918,-0.10,0.02,0.00,-104.00,-79.31,64.75,1.44,0.37,-2.00,0.03,0.05,0.04,-140.94,42.88,188.62,-0.06,-0.56,-0.13,4,2
1772051455.034112,132108,0.14,-0.23,-0.15,-101.75,-79.62,64.81,-9.25,-8.44,1.50,0.05,0.00,0.09,-140.81,42.81,188.62,6.00,4.31,-3.56,5,3
1772051455.223504,132297,0.00,0.16,0.12,-94.19,-79.69,63.13,-7.37,-1.81,3.06,-0.07,0.09,0.02,-140.94,42.94,187.25,2.00,1.75,-0.62,5,3
1772051455.416049,132490,0.02,0.26,0.05,-93.06,-79.06,61.56,-1.94,2.56,1.06,0.08,0.09,0.09,-141.12,43.00,187.06,0.44,-1.06,1.37,5,4
1772051455.606847,132681,-0.08,0.04,0.03,-94.69,-79.12,61.56,1.87,1.81,-2.94,0.05,0.07,0.07,-141.56,42.94,187.06,0.25,-2.31,0.19,6,4
1772051455.797726,132872,-0.01,-0.15,-0.02,-98.56,-79.81,62.75,3.19,1.62,-3.31,0.03,0.08,0.08,-141.75,42.88,186.87,0.94,0.94,0.19,5,4
1772051455.987364,133061,0.03,-0.01,-0.09,-99.87,-79.62,62.56,-4.69,1.06,4.31,0.00,0.05,0.00,-141.75,42.94,186.75,-1.62,-0.13,2.06,5,3
1772051456.178295,133252,0.08,0.12,0.03,-100.81,-78.81,61.94,12.69,3.00,3.00,-0.01,0.07,0.12,-141.62,43.00,187.06,-1.00,-0.19,0.69,5,3
1772051456.370273,133444,-0.07,0.05,0.06,-100.69,-78.87,62.81,-2.94,-2.75,-1.31,0.11,0.00,0.06,-141.62,43.00,187.00,-1.50,-1.00,1.44,4,3
1772051456.560722,133635,0.02,0.13,-0.02,-100.25,-78.87,62.81,0.62,-0.19,-0.19,0.01,0.06,0.10,-141.75,43.00,187.19,0.00,-0.50,-0.25,5,3
1772051456.751754,133825,-0.08,-0.16,-0.01,-99.00,-79.37,63.69,0.06,-3.06,-1.69,0.06,0.02,0.09,-141.75,43.00,187.19,-3.25,-1.50,2.19,5,3
1772051456.941274,134015,0.00,0.01,0.00,-96.06,-79.37,63.63,-1.87,-4.75,-2.50,-0.01,0.15,0.17,-141.25,42.94,188.31,0.19,0.00,-2.37,4,2
1772051457.131122,134205,-0.04,-0.32,-0.09,-92.44,-80.06,64.00,-6.25,-3.87,-3.44,0.13,-0.08,0.02,-141.06,42.63,188.31,1.56,1.31,-3.69,4,2
1772051457.323093,134397,-0.20,0.40,0.21,-85.62,-80.12,61.56,-12.75,1.37,6.75,-0.04,0.08,0.09,-140.81,42.81,188.06,-0.81,-0.62,0.19,4,1
1772051457.514155,134588,-0.04,0.28,0.10,-90.25,-79.37,60.38,12.06,11.38,2.50,-0.05,0.04,0.10,-140.81,42.81,187.94,-0.44,-0.56,0.13,3,2
1772051457.704643,134779,-0.05,-0.26,-0.22,-100.19,-78.44,62.13,1.69,2.81,1.00,0.03,0.02,0.07,-140.87,42.88,187.87,0.00,-1.12,0.69,3,2
1772051457.895517,134969,-0.10,0.01,0.00,-99.50,-78.62,61.75,-2.06,-6.25,-2.19,0.09,0.03,0.09,-140.87,42.81,188.06,0.31,-1.12,-0.81,3,2
1772051458.086171,135160,0.05,-0.12,-0.02,-96.00,-79.06,61.81,-3.00,-2.00,-2.75,0.04,0.00,0.06,-140.94,42.69,188.31,-1.19,-0.19,-0.50,2,1
1772051458.276836,135351,-0.09,0.08,0.02,-93.00,-79.62,61.50,0.31,1.44,1.06,0.01,0.02,0.12,-140.62,42.63,188.75,-1.56,0.25,0.06,3,3
1772051458.467447,135541,-0.09,0.07,0.07,-97.69,-78.81,61.88,11.56,6.87,6.75,0.04,0.07,0.07,-140.44,42.69,188.87,-0.06,-0.19,1.31,3,3
1772051458.658123,135732,0.02,0.00,-0.07,-100.87,-77.81,62.44,3.00,0.56,0.50,0.00,0.06,0.10,-140.69,42.75,189.00,-1.75,-2.25,0.37,2,3
1772051458.849158,135923,-0.07,-0.22,-0.02,-100.69,-78.19,63.19,-0.69,-3.06,-3.19,0.00,-0.07,0.08,-140.81,42.69,188.94,0.19,-0.50,-0.56,3,3
1772051459.039520,136113,0.01,-0.12,-0.03,-97.12,-78.56,63.06,-6.31,-6.19,0.31,0.04,0.01,0.18,-140.94,42.63,188.75,-1.25,-0.75,0.56,3,3
1772051459.230527,136304,-0.08,0.17,0.04,-90.75,-79.12,61.50,-14.38,-0.62,-5.69,0.00,0.02,0.10,-140.81,42.56,188.94,-1.25,-1.06,0.37,4,3
1772051459.421041,136495,-0.01,-0.10,0.02,-90.81,-79.37,61.31,4.06,-0.06,-0.44,-0.03,0.07,0.21,-140.75,42.50,189.31,0.37,0.06,0.19,4,2
1772051459.611407,136686,-0.05,0.02,0.00,-92.00,-79.37,61.56,0.31,1.19,-0.37,0.06,0.02,0.10,-140.87,42.63,189.00,0.81,-0.37,0.88,4,3
1772051459.802055,136876,0.00,0.01,-0.02,-94.31,-79.50,61.94,3.50,0.81,-1.19,0.01,0.06,0.14,-141.06,42.69,188.94,-0.69,-0.44,0.25,4,3
1772051459.992636,137067,-0.02,0.21,0.05,-97.12,-79.56,62.81,12.88,4.81,2.00,0.00,0.00,0.12,-141.00,42.69,189.00,0.19,-0.81,-0.88,4,3
1772051460.184078,137258,-0.01,-0.28,-0.08,-101.62,-79.19,64.75,-0.06,-0.19,0.37,0.06,0.02,0.10,-140.81,42.69,189.12,0.19,-0.88,-0.69,4,1
1772051460.374411,137448,0.00,-0.11,-0.01,-100.25,-79.12,64.12,-1.25,-3.81,1.25,0.08,-0.03,0.10,-140.69,42.63,189.19,2.19,1.06,-0.56,4,1
1772051460.565176,137639,0.07,-0.09,-0.10,-96.56,-78.94,62.94,-10.63,-3.19,-1.00,0.06,0.02,0.03,-140.56,42.56,189.37,0.94,1.00,-1.25,4,1
1772051460.755518,137829,-0.05,0.22,0.10,-91.62,-79.31,61.19,-5.94,0.13,1.37,-0.01,0.07,0.12,-140.50,42.56,189.25,0.13,-0.81,0.50,4,2
1772051460.944985,138019,0.01,0.09,0.01,-93.25,-78.94,60.88,6.12,6.62,2.00,0.11,0.07,0.12,-140.69,42.63,189.25,-2.44,-2.50,2.87,4,2
1772051461.137249,138211,-0.07,-0.04,-0.03,-97.44,-78.75,61.56,1.62,-2.50,-3.50,0.03,0.02,0.10,-140.81,42.44,189.62,0.81,-0.06,-0.13,3,2
1772051461.327958,138402,-0.01,-0.02,0.00,-96.87,-79.19,62.19,-0.13,0.50,-0.62,0.00,-0.02,0.07,-140.75,42.44,189.56,-1.25,0.56,0.25,4,2
1772051461.518217,138592,-0.08,0.07,0.02,-96.87,-79.06,62.06,-2.31,0.44,2.19,0.04,0.06,0.11,-140.94,42.56,189.19,0.44,-1.81,0.56,3,1
1772051461.707873,138782,-0.05,0.07,0.00,-97.44,-79.00,61.88,1.37,0.13,-1.19,0.06,0.00,0.10,-141.19,42.56,189.06,-1.12,-1.75,1.00,3,1
1772051461.898036,138972,0.07,-0.12,-0.11,-96.94,-79.25,62.31,-2.69,-5.37,-1.75,0.02,-0.10,0.07,-141.19,42.50,189.31,-1.19,-0.44,0.19,3,1
1772051462.090239,139164,-0.17,0.06,0.01,-90.87,-79.81,61.94,-1.62,-0.56,-0.50,0.00,0.02,0.13,-140.87,42.50,189.81,-2.56,-0.25,0.25,3,1
1772051462.281110,139355,0.03,0.01,-0.03,-91.19,-79.81,61.88,1.50,-1.00,-0.25,0.00,0.04,0.08,-140.69,42.50,190.12,1.06,0.94,-0.37,3,1
1772051462.471711,139546,-0.08,0.14,0.04,-90.06,-79.75,61.88,-0.44,2.31,0.25,0.01,0.07,0.09,-140.75,42.56,190.00,-0.25,-0.56,-0.50,3,1
1772051462.662254,139736,0.03,0.03,-0.04,-92.81,-79.87,62.13,0.88,0.56,-2.00,0.07,0.00,0.08,-140.87,42.50,190.06,0.75,-0.94,0.13,2,1
1772051462.853362,139927,-0.08,-0.02,-0.07,-93.37,-80.06,62.56,0.94,0.88,-0.37,0.02,0.01,0.05,-141.00,42.38,190.19,0.37,-0.44,-0.19,2,1
1772051463.044178,140118,-0.10,0.04,-0.02,-95.06,-80.12,62.81,2.19,1.50,1.12,0.01,0.06,0.12,-141.00,42.38,190.19,-0.06,0.06,0.37,2,1
1772051463.234635,140309,-0.09,0.15,-0.09,-95.62,-79.87,63.06,-2.31,1.12,0.94,0.06,0.01,0.08,-141.06,42.44,189.94,0.31,-0.50,-0.19,2,1
1772051463.425314,140499,-0.05,0.00,-0.07,-95.94,-79.94,63.06,0.44,-1.00,-0.06,0.04,0.07,0.08,-141.00,42.44,190.06,0.19,0.31,-0.88,2,2
1772051463.615683,140690,0.04,-0.05,-0.10,-94.37,-79.94,62.88,-3.37,-3.25,1.62,0.06,0.00,0.14,-140.94,42.38,190.12,0.94,0.81,-0.44,2,2
1772051463.806223,140880,0.00,0.22,0.04,-90.00,-79.87,61.88,-2.69,1.62,-0.75,0.03,0.03,0.07,-141.00,42.38,189.94,-0.88,-0.19,0.62,2,2
1772051463.997741,141072,-0.02,-0.05,-0.01,-91.69,-79.94,62.19,0.06,3.25,0.50,0.01,0.00,0.09,-140.87,42.44,190.06,-0.88,-0.50,0.94,3,2
1772051464.188029,141262,-0.01,0.01,-0.09,-95.06,-79.81,62.38,4.31,1.25,1.25,0.07,0.01,0.11,-140.87,42.50,190.06,0.69,-0.69,0.00,3,2
1772051464.378832,141453,0.01,0.00,-0.08,-95.94,-79.87,62.56,0.00,1.44,2.31,0.13,-0.01,0.08,-140.94,42.44,190.31,-0.44,-1.50,1.00,3,2
1772051464.568452,141643,-0.07,-0.15,-0.02,-95.87,-79.94,62.94,3.69,-0.13,0.31,0.01,0.04,0.05,-140.94,42.31,190.69,1.06,-1.50,0.62,3,2
1772051464.758095,141832,0.00,-0.05,-0.08,-96.31,-80.12,63.31,3.25,0.19,-1.25,0.08,0.06,0.15,-141.19,42.31,190.50,0.19,0.06,1.56,4,1
1772051464.950835,142025,0.10,0.11,-0.15,-96.75,-80.12,63.19,-2.00,0.00,-0.06,0.02,0.00,0.06,-141.44,42.38,190.12,-0.25,-0.19,-0.06,3,1
1772051465.141661,142216,-0.04,0.00,-0.03,-94.06,-80.12,63.19,-1.56,-2.44,-0.25,0.00,-0.04,0.08,-141.37,42.38,190.19,0.13,0.25,-0.37,3,1
1772051465.332566,142406,-0.05,0.04,-0.04,-92.69,-80.12,63.06,-0.37,-0.69,0.37,0.09,-0.07,0.08,-141.19,42.38,190.37,-0.88,0.31,-0.69,3,1
1772051465.521945,142596,0.01,0.02,-0.14,-93.44,-80.06,63.06,1.25,1.37,1.62,-0.02,0.04,0.10,-140.69,42.31,191.12,-1.37,1.19,-0.50,3,1
1772051465.713158,142787,0.02,0.23,0.02,-92.62,-79.75,62.75,-0.81,-0.75,0.50,0.00,0.07,0.15,-140.62,42.31,191.31,0.56,0.75,-1.00,3,2
1772051465.904636,142979,-0.03,0.10,-0.06,-91.50,-79.75,62.69,-0.44,1.06,-0.44,-0.01,0.02,0.10,-140.62,42.31,191.37,0.62,0.56,-0.69,3,2
1772051466.094880,143169,0.02,0.11,-0.05,-91.00,-80.00,62.44,-8.94,-0.13,0.88,0.02,0.00,0.06,-140.69,42.31,190.62,-0.50,0.25,0.81,3,2
1772051466.285715,143360,-0.02,0.10,-0.02,-89.62,-79.69,61.63,-0.25,-0.13,-1.12,0.09,0.04,0.11,-140.69,42.31,190.62,0.56,0.37,-0.44,3,2
1772051466.475896,143550,0.01,0.07,-0.04,-90.37,-79.81,61.81,-1.81,0.37,0.94,0.02,0.04,0.06,-140.81,42.31,190.44,-0.06,-0.50,0.50,4,3
1772051466.665681,143740,0.00,0.03,-0.01,-91.75,-79.75,61.75,3.00,2.31,0.50,0.00,0.10,0.09,-140.87,42.31,190.50,-1.25,-1.62,0.37,4,3
1772051466.857456,143932,0.03,0.00,-0.05,-93.44,-79.75,62.06,-0.75,0.69,-0.31,0.05,0.05,0.07,-141.00,42.38,190.44,-1.06,0.00,1.75,4,2
1772051467.048539,144122,0.00,-0.05,-0.08,-93.37,-79.69,62.00,1.44,-0.06,-2.31,0.09,-0.03,0.10,-141.00,42.44,190.56,-0.69,-0.31,1.06,3,3
1772051467.238822,144313,0.05,0.00,-0.15,-93.62,-79.69,62.06,1.19,-0.94,0.50,0.01,0.06,0.15,-140.87,42.44,190.94,0.06,0.94,-0.69,4,3
1772051467.429286,144503,0.04,0.10,-0.05,-91.62,-79.69,61.88,-3.37,-1.12,0.62,0.06,0.01,0.08,-140.94,42.50,190.62,-0.88,0.13,0.19,3,3
1772051467.620189,144694,-0.01,-0.03,-0.06,-88.69,-79.75,61.63,-3.12,-3.75,-0.44,0.03,0.02,0.14,-140.81,42.44,190.75,0.62,-0.44,-1.00,3,3
1772051467.811255,144885,-0.08,0.22,0.10,-83.87,-80.06,60.44,-7.12,0.19,-1.62,0.00,0.06,0.13,-140.94,42.31,190.81,0.44,-0.62,-0.37,4,3
1772051468.001532,145076,-0.07,0.05,0.02,-84.12,-80.12,60.56,1.56,1.19,-0.44,0.07,0.05,0.12,-141.12,42.38,190.75,-0.50,-1.56,1.25,4,3
1772051468.192198,145266,0.07,0.07,-0.01,-87.69,-80.06,61.19,10.13,1.87,0.44,0.03,0.04,0.13,-141.31,42.19,190.81,-0.56,-1.44,0.81,4,3
1772051468.382556,145457,0.03,-0.13,-0.07,-91.44,-80.06,62.94,4.69,0.13,-1.12,0.01,0.10,0.14,-141.50,42.13,191.06,1.25,-0.81,1.12,3,2
1772051468.572252,145646,-0.04,0.10,-0.10,-92.44,-80.25,63.31,1.69,0.81,0.31,0.05,0.03,0.12,-141.75,42.13,191.25,-1.87,-2.25,1.87,3,2
1772051468.764469,145838,-0.02,-0.24,-0.06,-93.87,-80.69,64.62,3.81,-1.06,-5.06,-0.01,0.06,0.09,-141.44,41.88,191.94,3.19,2.56,-4.50,3,2
1772051468.955003,146029,-0.17,-0.02,0.11,-90.00,-81.37,64.69,-11.38,-3.69,5.44,0.14,-0.08,0.16,-141.44,42.25,190.31,0.75,1.06,2.75,3,2
1772051469.145665,146220,0.03,0.13,-0.10,-89.75,-80.06,61.69,-8.75,-2.12,1.56,0.14,-0.07,0.04,-141.37,42.44,190.19,1.56,0.69,-1.00,3,2
1772051469.335193,146410,-0.02,0.14,0.01,-89.50,-80.69,60.81,4.56,1.87,-0.44,0.00,0.10,0.08,-141.12,42.38,190.81,-2.25,0.19,0.56,3,1
1772051469.524771,146599,0.07,0.09,0.03,-92.00,-80.31,61.50,2.37,-0.94,3.75,-0.01,0.02,0.15,-140.87,42.38,191.37,1.25,0.06,0.31,3,1
1772051469.717275,146792,-0.09,0.00,0.04,-91.87,-80.25,61.44,1.37,2.56,-1.12,0.06,0.00,0.06,-140.94,42.44,191.00,0.31,0.31,0.88,3,1
1772051469.908248,146983,0.01,0.21,-0.04,-96.00,-80.12,61.50,5.62,2.87,3.56,0.00,0.01,0.09,-141.06,42.63,190.69,-0.44,-0.31,1.75,3,1
1772051470.099192,147173,0.10,-0.13,-0.02,-98.37,-79.50,62.25,2.87,-1.56,-2.06,0.06,0.04,0.07,-141.25,42.69,190.69,0.50,-1.12,1.06,3,1
1772051470.288975,147363,-0.05,-0.06,-0.04,-98.06,-79.87,62.75,-1.19,-0.06,-2.50,0.02,0.04,0.12,-141.44,42.63,190.62,1.69,0.44,-0.94,3,1
1772051470.478310,147553,0.08,-0.02,0.00,-97.31,-80.06,62.81,1.81,-0.75,0.50,0.06,0.02,0.16,-141.31,42.69,190.75,-1.56,0.50,1.56,3,1
1772051470.671246,147745,-0.04,0.07,0.01,-95.87,-79.87,62.50,-0.37,-1.31,-0.81,-0.01,0.02,0.09,-141.12,42.63,191.12,0.13,0.81,-1.75,3,1
1772051470.862115,147936,-0.07,0.03,0.00,-94.00,-79.94,62.19,-5.81,-0.19,2.12,0.08,-0.04,0.05,-141.00,42.63,191.00,-0.88,-0.50,-0.44,3,1
1772051471.052265,148127,-0.04,0.07,0.06,-94.50,-79.62,61.38,-2.12,0.56,0.50,0.01,0.01,0.09,-141.00,42.63,191.00,0.50,-1.81,0.25,3,1
1772051471.242723,148317,-0.02,0.00,-0.09,-95.75,-79.87,61.56,1.06,-0.62,-3.00,0.06,0.00,0.05,-141.25,42.44,191.00,0.37,-0.62,0.00,3,1
1772051471.433259,148508,-0.02,-0.01,0.02,-95.87,-80.25,62.13,1.00,-1.31,-0.13,0.02,0.05,0.04,-141.25,42.44,191.06,0.06,0.00,-0.37,3,1
1772051471.624974,148699,-0.03,0.02,-0.03,-94.69,-80.25,61.94,-1.94,-3.00,1.62,0.04,-0.02,0.05,-141.00,42.50,191.31,-1.75,0.88,-0.13,3,1
1772051471.815584,148890,0.00,0.08,0.00,-94.81,-79.87,61.31,1.75,1.56,2.44,-0.02,0.05,0.13,-140.62,42.50,191.75,-0.88,0.19,0.50,3,1
1772051472.006094,149080,-0.03,0.04,-0.02,-97.69,-79.19,61.69,12.94,3.37,4.37,0.07,-0.03,0.10,-140.69,42.56,191.62,-0.56,-1.12,2.06,3,1
1772051472.196386,149271,0.08,0.08,-0.09,-101.00,-79.00,62.31,-2.37,0.13,-1.56,0.05,-0.03,0.05,-140.94,42.44,191.75,-0.75,-0.81,0.06,3,1
1772051472.386403,149460,-0.01,-0.21,-0.08,-97.69,-79.37,62.00,-14.81,-7.44,-1.19,0.11,-0.05,0.10,-141.25,42.38,191.44,-1.06,-2.62,1.94,3,1
1772051472.577889,149652,0.00,0.17,0.05,-92.87,-79.81,60.13,0.25,-1.56,-0.81,0.04,0.04,0.13,-141.31,42.31,191.56,-0.94,0.50,0.31,3,1
1772051472.768684,149843,0.02,0.08,-0.02,-94.00,-79.81,60.44,0.06,1.12,-0.44,0.02,0.03,0.13,-141.31,42.31,191.75,-0.19,-0.25,0.13,3,1
1772051472.959658,150034,-0.04,-0.03,0.02,-95.37,-80.00,60.75,-0.25,2.31,-0.56,0.05,0.00,0.07,-141.44,42.31,191.62,-0.56,-1.12,1.19,3,1
1772051473.149682,150224,-0.02,0.12,-0.07,-99.56,-79.62,61.25,15.25,3.37,4.37,0.04,0.03,0.14,-141.37,42.31,192.00,-0.19,0.50,0.69,3,1
1772051473.340777,150415,-0.04,-0.10,0.00,-102.12,-79.06,62.75,0.19,0.62,0.56,0.07,0.00,0.13,-141.31,42.38,191.81,-0.31,-0.88,-0.19,3,1
1772051473.531963,150606,0.18,-0.05,-0.11,-103.50,-78.94,62.50,-1.81,1.00,0.44,0.05,-0.01,0.12,-141.25,42.38,191.87,0.19,-0.13,0.44,2,1
1772051473.722634,150797,-0.12,0.01,0.02,-102.87,-79.06,62.31,0.06,-0.31,-1.31,0.06,0.02,0.09,-141.19,42.44,191.87,-0.37,-0.37,-0.31,3,1
1772051473.913242,150987,-0.19,0.11,0.00,-103.31,-78.94,62.38,0.75,0.06,0.06,0.03,-0.01,0.07,-141.06,42.44,192.00,0.37,-0.37,-0.13,3,1
1772051474.103905,151178,0.03,0.00,-0.05,-105.00,-79.12,62.69,0.37,0.88,-1.19,0.04,-0.05,0.06,-141.19,42.44,191.94,0.69,-0.56,0.69,3,1
1772051474.293983,151368,0.08,-0.11,-0.09,-105.75,-79.06,62.88,1.69,1.56,0.81,0.03,0.05,0.09,-141.25,42.38,192.00,-0.06,-0.37,0.13,2,1
1772051474.485423,151560,0.03,0.00,-0.03,-106.00,-79.00,62.81,-0.94,-0.06,0.81,0.04,0.01,0.10,-141.25,42.38,192.00,-0.31,0.00,-0.19,2,1
1772051474.676207,151750,0.21,0.01,-0.14,-104.56,-79.00,62.50,-3.69,-5.62,-0.56,0.03,0.01,0.09,-141.12,42.31,192.12,0.37,-0.06,-1.31,2,1
1772051474.867134,151941,-0.05,0.06,0.03,-96.81,-79.56,61.94,-6.31,-1.19,-2.75,0.02,0.05,0.08,-141.00,42.19,192.37,-1.06,-0.19,-1.19,2,1
1772051475.056684,152131,0.01,0.00,0.00,-95.25,-79.87,61.63,0.75,-2.31,1.06,0.02,0.05,0.11,-140.94,42.19,192.50,0.81,0.62,0.56,2,1
1772051475.247908,152322,-0.08,-0.06,-0.02,-94.06,-79.87,61.69,1.12,-0.44,0.88,0.08,0.02,0.16,-140.87,42.31,192.37,0.75,0.25,0.88,2,1
1772051475.438995,152513,-0.14,0.15,0.02,-95.69,-79.62,61.38,4.37,3.69,0.56,0.01,0.03,0.15,-141.00,42.44,192.31,-1.25,-0.81,1.19,3,1
1772051475.629497,152704,0.10,-0.05,-0.13,-102.12,-78.81,62.19,6.81,1.12,1.19,0.07,0.00,0.12,-141.12,42.50,192.44,-0.69,-1.37,0.94,2,1
1772051475.820254,152895,0.07,-0.18,-0.11,-103.19,-79.25,62.81,-2.31,-0.19,-1.56,0.07,-0.01,0.06,-141.25,42.50,191.94,4.50,3.19,0.69,3,1
1772051476.009981,153084,0.22,0.11,-0.22,-102.06,-78.87,61.75,-1.75,-0.62,1.81,0.08,0.01,0.12,-141.31,42.63,191.87,1.87,1.00,-1.00,3,1
1772051476.200203,153274,0.02,-0.01,-0.01,-98.87,-79.25,61.81,0.31,-4.50,-1.94,-0.02,0.03,0.16,-141.25,42.50,192.12,-0.37,-0.69,-1.37,2,1
1772051476.392217,153466,-0.07,0.01,0.02,-92.12,-79.75,61.31,-12.44,-4.25,-2.37,0.04,0.00,0.06,-141.00,42.38,192.44,-2.06,-1.50,0.06,3,2
1772051476.582852,153657,-0.04,-0.04,0.00,-90.81,-79.87,60.75,3.94,-1.06,0.69,0.04,0.06,0.10,-140.81,42.31,192.81,-0.75,0.25,0.00,3,2
1772051476.773497,153848,-0.11,0.09,0.06,-91.25,-79.75,60.75,-0.13,2.87,1.37,0.05,0.01,0.06,-140.81,42.31,192.81,-0.06,0.37,0.19,4,2
1772051476.964049,154038,0.19,-0.08,-0.09,-99.00,-79.06,61.00,8.38,7.31,4.75,0.04,0.09,0.14,-140.81,42.31,192.94,-0.31,-1.06,0.50,3,2
1772051477.155084,154229,-0.17,0.07,0.02,-100.31,-79.00,61.13,-0.69,0.69,-0.69,0.01,0.02,0.07,-141.06,42.31,192.44,0.13,-0.75,-0.44,4,2
1772051477.346394,154420,0.00,-0.02,-0.06,-100.56,-79.12,61.25,-0.81,-2.00,-0.62,0.03,0.07,0.11,-141.12,42.31,192.44,-0.19,-0.37,-0.25,4,3
1772051477.536936,154611,-0.11,0.03,0.01,-96.00,-79.31,60.88,-9.63,-6.19,-1.62,0.06,-0.05,0.06,-141.00,42.31,192.50,-2.56,-0.94,0.44,4,3
1772051477.727568,154802,-0.02,0.00,0.00,-92.56,-79.56,60.31,0.56,-1.62,-0.44,0.01,0.06,0.05,-140.75,42.31,192.94,-0.50,-0.13,-0.06,4,3
1772051477.918160,154992,-0.02,0.03,0.02,-91.25,-79.56,60.25,-1.06,-0.75,-0.31,0.02,0.04,0.11,-140.75,42.31,192.87,0.81,-0.44,0.19,4,3
1772051478.108408,155183,-0.01,0.03,-0.01,-91.69,-79.56,60.19,1.37,1.87,0.69,0.04,0.06,0.15,-140.94,42.38,192.75,-0.19,-0.75,1.00,4,4
1772051478.299939,155374,0.02,-0.01,-0.03,-93.62,-79.50,60.44,1.87,1.44,-0.88,0.08,0.07,0.10,-141.12,42.44,192.69,-0.44,-1.44,0.62,4,4
1772051478.490222,155565,-0.01,0.01,0.02,-95.12,-79.69,60.94,4.50,4.19,0.13,0.07,0.00,0.06,-141.31,42.38,192.69,-0.50,-0.81,1.87,4,4
1772051478.681335,155755,-0.09,-0.01,-0.06,-97.69,-79.50,61.44,-2.44,-0.69,0.69,0.07,0.04,0.16,-141.37,42.56,192.44,-0.31,-0.37,0.81,4,4
1772051478.871364,155946,0.05,-0.10,-0.05,-98.31,-79.44,61.44,3.56,-0.88,-2.44,0.04,0.05,0.11,-141.25,42.44,192.94,0.44,0.69,-0.88,4,4
1772051479.061145,156135,0.09,-0.14,-0.05,-96.69,-79.62,61.31,-6.06,-4.62,2.00,0.15,-0.07,0.13,-141.31,42.31,192.69,-1.44,-1.87,1.12,4,4
1772051479.253161,156327,-0.13,0.12,0.07,-92.44,-79.56,60.25,-3.87,-0.31,-1.81,0.03,0.00,0.08,-141.25,42.31,192.75,-1.00,-0.19,-1.19,4,3
1772051479.443507,156518,0.00,-0.20,-0.04,-93.62,-79.75,60.56,2.25,0.62,1.06,0.01,0.01,0.12,-140.81,42.31,193.19,0.44,0.50,-0.25,3,3
1772051479.634460,156709,-0.08,0.14,0.06,-92.75,-79.44,60.06,-0.44,-1.44,2.25,0.00,0.04,0.09,-140.81,42.31,193.12,-0.06,-1.06,0.50,3,3
1772051479.824659,156899,-0.01,0.11,0.01,-93.94,-79.25,60.13,3.31,2.19,0.56,0.06,0.07,0.13,-140.87,42.31,193.19,-0.13,-0.75,1.06,3,3
1772051480.016292,157089,-0.05,-0.09,-0.02,-96.69,-79.12,61.00,2.69,2.37,-2.06,0.13,-0.04,0.06,-141.06,42.44,192.81,0.25,-0.81,2.62,3,2
1772051480.206607,157281,0.06,0.08,-0.11,-98.62,-79.31,61.44,4.06,-0.62,-3.37,-0.01,0.08,0.11,-141.06,42.38,193.44,-1.44,0.19,-0.25,3,2
1772051480.397528,157472,-0.02,-0.18,-0.02,-96.69,-79.94,62.56,-1.94,-3.31,-1.12,0.03,-0.01,0.01,-140.81,42.19,193.75,0.75,0.75,-1.12,3,2
1772051480.587888,157662,0.01,0.23,-0.02,-91.37,-79.75,61.56,-8.75,0.25,4.75,0.04,0.06,0.10,-141.00,42.44,193.06,-0.13,-0.94,0.81,3,2
1772051480.778528,157853,0.04,-0.01,-0.01,-90.62,-79.62,60.81,-0.44,-1.62,-2.50,0.05,0.00,0.08,-141.12,42.44,192.81,0.31,-0.50,0.56,3,2
1772051480.968765,158043,0.00,0.00,-0.07,-90.31,-79.87,60.19,-8.06,2.62,-0.56,0.06,-0.03,0.04,-141.00,42.44,193.00,-1.12,0.13,0.37,3,2
1772051481.160059,158235,0.02,0.02,-0.04,-91.37,-79.69,59.63,3.06,0.69,0.25,-0.09,0.13,0.16,-140.81,42.50,193.31,0.31,0.69,-0.50,2,2
1772051481.350934,158425,-0.07,0.08,-0.02,-91.69,-79.56,60.06,3.25,0.56,1.06,0.05,-0.04,0.06,-140.81,42.56,193.19,0.06,-0.44,0.75,3,2
1772051481.541448,158616,0.11,-0.06,0.00,-96.31,-79.06,61.31,15.25,1.56,3.44,0.10,-0.05,0.02,-140.94,42.63,192.94,0.62,-0.44,2.19,3,1
1772051481.731230,158806,0.06,0.05,-0.13,-99.00,-79.12,62.25,-1.56,0.50,-2.87,0.04,-0.04,-0.02,-141.19,42.44,193.31,-0.94,-1.50,0.81,3,1
1772051481.920935,158995,0.04,-0.31,-0.13,-98.25,-79.69,63.13,2.56,-1.37,-2.50,-0.08,0.09,0.08,-140.81,42.25,194.00,2.12,1.94,-2.87,3,1
1772051482.113434,159188,-0.11,0.25,-0.02,-92.75,-79.69,62.13,-8.38,-1.94,4.75,0.06,0.04,0.19,-140.81,42.38,193.50,-0.31,0.94,0.31,3,1
1772051482.304115,159379,0.02,0.02,0.01,-89.81,-79.31,60.31,-7.06,0.37,1.44,-0.06,0.00,0.01,-140.75,42.50,192.87,-0.44,-0.56,0.50,4,1
1772051482.494998,159569,0.01,0.15,-0.02,-89.25,-79.12,59.44,-1.44,1.31,0.13,0.00,0.03,0.10,-140.75,42.44,192.94,-0.56,0.81,-0.25,4,1
1772051482.685010,159759,-0.03,-0.16,-0.01,-90.06,-79.19,59.44,-4.06,2.00,-0.75,0.02,0.02,0.01,-140.56,42.50,193.12,-0.56,-1.56,-0.06,5,1
1772051482.875349,159950,-0.02,-0.14,0.01,-90.50,-79.25,59.13,3.31,-2.19,-1.19,0.03,0.02,0.14,-140.56,42.38,193.44,-0.69,-0.94,0.56,4,1
1772051483.067187,160142,0.02,0.01,-0.07,-91.12,-79.37,59.31,-1.25,2.94,-1.00,-0.06,0.07,0.05,-140.69,42.38,193.25,0.94,-0.06,-0.06,5,2
1772051483.257671,160332,-0.07,0.06,0.09,-91.00,-79.44,59.50,1.69,-0.31,0.37,0.10,0.03,0.16,-140.75,42.44,193.06,-1.87,-0.69,2.75,4,2
1772051483.448401,160523,0.15,-0.17,-0.14,-94.50,-78.75,60.13,7.25,1.44,0.37,-0.04,0.10,0.07,-140.94,42.56,193.12,1.69,-0.06,0.44,4,3
1772051483.638284,160713,-0.07,0.01,-0.03,-93.94,-79.06,60.44,1.00,-1.25,-0.75,0.00,0.00,0.09,-141.25,42.50,193.06,-1.81,-1.44,0.50,4,3
1772051483.828974,160903,0.00,-0.08,-0.02,-93.19,-79.31,60.94,0.44,-2.50,0.50,0.00,0.03,0.09,-141.06,42.50,193.31,-0.13,0.75,-0.37,4,2
1772051484.020448,161095,-0.02,0.01,0.00,-91.12,-79.31,60.94,-0.44,-1.06,0.50,0.02,0.06,0.15,-141.00,42.56,193.19,-0.44,0.81,-0.50,4,2
1772051484.211405,161286,-0.06,-0.01,-0.05,-90.06,-79.19,60.63,-1.44,-0.81,0.75,0.08,0.02,0.12,-140.81,42.44,193.37,0.69,0.19,-1.81,4,2
1772051484.401947,161476,0.20,-0.25,-0.05,-88.00,-79.06,60.13,-2.25,-5.87,-1.00,0.00,0.08,0.16,-140.75,42.31,193.50,1.00,1.12,-0.75,4,3
1772051484.591945,161667,-0.05,0.19,0.10,-82.44,-79.31,59.06,-7.81,2.44,0.00,0.01,0.08,0.14,-140.81,42.38,193.19,-0.62,0.50,-0.06,3,2
1772051484.782556,161857,-0.03,0.07,0.03,-83.00,-79.19,58.44,-3.25,0.50,-0.62,0.04,0.07,0.20,-140.81,42.38,193.25,0.19,-0.62,0.00,3,2
1772051484.974148,162049,-0.02,0.05,-0.02,-84.00,-79.37,58.56,2.19,0.94,-1.06,-0.02,0.08,0.04,-140.81,42.38,193.19,1.19,-0.37,-0.06,2,2
1772051485.164518,162239,0.02,0.15,0.00,-86.19,-79.25,59.38,14.69,-0.19,3.56,-0.01,0.11,0.04,-140.81,42.38,193.25,0.62,0.06,-0.13,2,2
1772051485.355685,162430,-0.03,-0.01,-0.08,-87.37,-79.19,60.75,-1.19,-0.69,-2.06,0.02,0.01,0.09,-141.00,42.31,193.25,1.12,-0.31,-0.13,2,1
1772051485.545815,162620,-0.10,-0.03,-0.02,-85.75,-79.31,60.88,-0.31,-1.75,0.88,0.04,0.07,0.07,-140.94,42.31,193.31,-0.50,-0.37,-0.19,2,2
1772051485.735859,162810,-0.06,-0.02,0.05,-82.81,-79.44,60.38,-8.06,-2.81,-1.75,0.02,0.00,0.08,-140.94,42.31,193.37,0.31,0.06,-0.13,3,2
1772051485.927166,163002,0.02,-0.06,0.06,-82.50,-79.62,60.00,2.50,0.94,0.62,0.00,0.05,0.15,-140.87,42.38,193.25,-0.62,0.44,0.75,3,2
1772051486.118161,163193,-0.01,0.11,-0.03,-84.06,-79.31,59.75,1.44,1.75,0.56,0.03,0.07,0.15,-141.12,42.50,193.12,-0.13,-1.06,0.94,3,2
1772051486.308691,163383,-0.05,0.02,-0.04,-86.25,-79.50,60.44,5.56,0.56,-2.75,-0.01,0.04,0.05,-141.31,42.44,193.00,1.87,0.44,-0.44,2,1
1772051486.499335,163574,-0.04,0.02,-0.08,-87.12,-79.69,61.38,0.56,0.06,1.12,0.09,0.03,0.15,-141.50,42.50,192.94,-0.13,-0.25,0.37,3,2
1772051486.689314,163764,0.00,0.07,0.01,-88.12,-79.62,61.81,10.19,-1.37,2.19,0.05,0.05,0.10,-141.50,42.50,192.87,0.62,0.62,-0.37,3,1
1772051486.881051,163955,0.05,0.10,-0.01,-88.37,-79.44,62.31,-2.31,-0.37,1.50,-0.02,0.13,0.11,-141.44,42.50,193.06,-0.44,-0.37,-0.69,4,1
1772051487.071688,164146,0.09,-0.07,-0.12,-86.69,-79.25,61.88,-4.62,-4.00,0.50,0.04,0.12,0.24,-141.37,42.31,193.75,-6.19,-5.37,1.94,3,1
1772051487.262422,164337,-0.09,0.10,0.01,-79.62,-80.31,59.50,-12.88,-3.25,-3.87,-0.07,0.04,0.06,-141.06,41.94,194.31,3.44,3.06,-3.87,3,1
1772051487.452155,164527,-0.02,0.16,0.05,-76.94,-79.94,58.63,-1.31,2.25,4.81,-0.06,0.11,0.13,-140.81,42.06,194.12,-0.50,1.56,-0.56,3,1
1772051487.641449,164716,-0.03,0.41,0.09,-80.12,-79.00,58.00,9.94,3.75,5.62,0.04,0.06,0.11,-140.69,42.19,194.06,-1.37,-1.81,1.44,3,1
1772051487.834143,164909,0.00,-0.36,-0.21,-86.75,-78.12,60.75,17.44,-3.37,-1.06,0.08,0.06,0.20,-140.69,42.19,194.12,1.06,-1.00,0.06,3,1
1772051488.025171,165100,-0.06,0.00,-0.04,-85.81,-78.56,61.75,1.75,-0.13,-0.56,-0.04,0.02,0.07,-140.69,42.06,194.31,-0.13,0.19,0.25,3,1
1772051488.215856,165290,0.02,-0.06,-0.06,-85.25,-78.69,62.00,-0.44,-0.69,0.56,0.03,0.04,0.10,-140.50,42.13,194.50,-0.37,0.81,-0.37,3,1
1772051488.405853,165480,0.11,0.09,-0.11,-84.94,-78.31,61.19,-3.31,-1.44,2.12,0.00,0.03,0.11,-140.44,42.19,194.44,-0.25,-0.06,-0.13,3,1
1772051488.596506,165671,-0.13,0.18,0.11,-81.81,-78.12,60.69,-0.25,-1.00,-0.69,-0.03,0.05,0.05,-140.37,42.19,194.56,-0.50,-1.12,0.56,3,1
1772051488.787677,165862,0.10,-0.16,-0.02,-81.81,-78.25,60.88,-5.81,-2.50,-1.44,0.04,0.02,0.13,-140.62,42.25,194.25,3.00,2.25,0.44,4,1
1772051488.978701,166053,0.04,0.28,-0.02,-80.44,-78.56,59.69,-2.12,4.50,2.19,-0.01,0.04,0.05,-140.94,42.38,193.69,-1.62,-1.00,1.69,4,1
1772051489.169243,166244,-0.08,-0.01,0.15,-84.56,-78.44,60.44,13.19,3.44,3.75,0.04,0.02,0.00,-140.81,42.56,193.37,0.88,0.88,0.50,4,1
1772051489.359533,166434,0.03,0.07,-0.18,-87.62,-77.81,60.75,-3.87,-3.31,-0.81,0.13,-0.02,0.15,-140.81,42.63,193.56,0.31,-0.94,-0.50,4,1
1772051489.549530,166624,0.00,-0.15,0.05,-84.56,-77.94,60.88,-1.25,-5.75,-0.31,0.00,0.03,0.06,-140.62,42.44,194.12,0.19,-0.13,-0.81,3,1
1772051489.741217,166816,-0.04,-0.06,0.06,-79.75,-77.87,60.50,-3.31,-1.50,-0.75,0.03,0.07,0.16,-140.50,42.44,194.19,-0.69,0.94,-0.25,3,1
1772051489.932104,167007,0.00,0.13,0.09,-78.56,-78.00,59.69,-5.44,0.88,-0.31,-0.03,0.10,0.09,-140.44,42.50,194.12,0.50,0.31,-0.13,4,1
1772051490.122846,167198,-0.04,0.00,0.03,-79.06,-78.19,59.50,-1.44,2.44,-1.62,0.00,0.01,0.06,-140.69,42.44,193.81,1.75,-0.50,0.19,3,1
1772051490.313105,167387,-0.06,-0.11,-0.05,-80.69,-78.50,59.50,-2.81,1.12,-2.00,0.03,0.09,0.10,-140.69,42.38,194.00,-0.75,-1.06,-0.50,3,2
1772051490.502675,167578,0.01,0.13,0.06,-81.69,-78.81,59.19,2.62,0.31,1.00,0.02,0.09,0.13,-140.75,42.31,194.19,-0.62,-0.75,0.19,3,2
1772051490.694241,167769,0.00,-0.05,0.02,-83.06,-78.94,59.75,3.31,1.00,-1.19,0.04,0.03,0.10,-140.87,42.19,194.37,0.31,-0.94,0.69,3,2
1772051490.885416,167960,-0.10,-0.02,0.03,-83.87,-79.00,60.06,-0.13,0.25,-0.13,0.03,0.00,0.05,-141.00,42.13,194.37,0.69,-0.37,0.31,2,1
1772051491.076212,168151,0.03,-0.02,0.02,-85.25,-79.00,60.31,3.62,1.00,0.13,0.03,0.07,0.14,-141.06,42.06,194.62,-0.31,-0.44,0.19,2,2
1772051491.266043,168341,0.02,-0.14,-0.03,-87.44,-78.62,61.31,8.56,0.44,0.62,0.01,0.00,0.07,-141.06,42.13,194.69,-1.25,-0.19,0.88,3,2
1772051491.455721,168530,-0.11,0.12,-0.03,-87.37,-78.69,61.50,-2.06,1.69,1.62,0.15,0.00,0.12,-141.00,42.19,194.81,-1.87,-0.81,0.62,3,2
1772051491.647584,168722,-0.15,0.00,0.00,-87.19,-78.75,61.75,0.81,-2.31,-0.75,0.00,0.01,0.07,-140.81,42.19,195.06,0.69,0.69,-1.06,4,2
1772051491.839161,168914,-0.07,-0.15,-0.03,-86.31,-79.00,61.94,-2.75,-0.44,1.00,0.03,-0.01,0.06,-140.69,42.38,194.56,1.75,1.81,-1.94,3,2
1772051492.030048,169105,-0.14,0.26,0.11,-84.87,-78.50,60.69,-3.75,-1.12,4.62,-0.02,0.10,0.09,-140.69,42.56,194.25,-0.37,-1.31,1.19,3,2
1772051492.219406,169294,0.00,-0.01,-0.02,-85.50,-78.37,60.31,-0.50,2.69,-1.87,0.00,0.00,0.00,-141.06,42.56,193.81,0.56,-1.50,1.12,3,2
1772051492.409777,169484,-0.07,-0.14,-0.10,-86.94,-78.69,60.81,1.94,-0.62,-1.75,-0.05,0.00,0.08,-141.12,42.50,193.94,0.00,-0.25,-0.31,4,2
1772051492.601740,169676,-0.17,-0.07,0.09,-85.62,-78.75,61.00,-0.31,-2.06,0.19,0.04,0.07,0.12,-141.06,42.50,194.00,-0.13,-0.19,-0.13,3,2
1772051492.792900,169867,0.06,-0.04,-0.14,-85.87,-78.81,60.94,-0.50,-0.19,-1.25,0.00,0.02,0.08,-141.12,42.44,194.06,-0.37,-0.19,-0.62,3,2
1772051492.983723,170058,-0.06,0.23,0.06,-83.37,-79.25,60.25,-6.44,-0.62,0.06,-0.05,0.02,0.02,-141.00,42.31,194.44,-1.31,0.06,-0.88,3,2
1772051493.173162,170248,0.02,-0.13,0.03,-82.87,-78.94,60.19,-0.94,-0.13,3.44,-0.02,0.08,0.13,-140.69,42.25,194.94,-1.87,-1.00,1.44,3,2
1772051493.362165,170437,0.01,0.17,0.09,-83.19,-78.69,59.44,4.12,1.37,2.44,0.03,0.02,0.16,-140.50,42.31,194.81,0.44,1.44,0.31,3,1
1772051493.554818,170629,0.16,-0.32,-0.20,-88.62,-77.37,60.75,13.31,-0.25,3.37,0.05,0.10,0.11,-140.44,42.44,194.81,-0.44,-0.62,0.69,2,1
1772051493.746361,170821,-0.17,-0.02,0.02,-86.87,-77.62,61.13,-0.75,-1.06,0.88,-0.05,0.11,0.14,-140.44,42.44,194.94,-0.25,-0.25,-0.44,3,1
1772051493.937288,171012,-0.01,-0.02,0.01,-85.94,-77.62,60.81,-3.00,-1.50,-0.56,0.00,0.05,0.07,-140.44,42.38,194.94,-0.44,-0.50,0.44,2,1
1772051494.126658,171201,0.02,-0.02,-0.03,-84.81,-77.69,60.56,-2.56,-1.00,0.25,0.00,0.05,0.10,-140.37,42.44,194.87,1.00,0.25,0.62,2,1
1772051494.316716,171391,-0.06,0.11,0.01,-83.50,-77.75,60.06,-1.37,-0.62,-0.94,0.01,-0.03,0.10,-140.50,42.50,194.62,0.75,-0.06,0.19,2,1
1772051494.509097,171583,0.07,-0.02,-0.08,-82.94,-78.37,59.69,-8.75,-0.88,-4.69,-0.01,0.04,0.11,-140.44,42.38,195.00,-0.50,-0.06,-0.13,3,2
1772051494.699549,171774,-0.06,0.06,0.11,-80.12,-78.69,59.31,1.06,-1.31,0.94,0.00,0.04,0.11,-140.44,42.44,194.94,-0.13,-0.50,0.81,3,2
1772051494.890817,171966,0.00,0.03,0.01,-81.00,-78.69,59.50,2.12,1.31,-0.13,-0.01,0.04,0.12,-140.56,42.44,195.00,0.37,-0.75,0.31,2,2
1772051495.080532,172155,0.00,-0.02,0.02,-81.87,-78.81,60.00,1.37,0.00,-0.13,-0.06,0.05,0.07,-140.81,42.31,195.12,-0.75,-1.19,0.94,2,2
1772051495.269852,172345,0.00,0.08,0.01,-83.37,-78.75,61.00,12.44,-0.56,1.62,0.04,0.02,0.12,-140.94,42.31,195.19,0.19,-0.31,0.13,2,2
1772051495.462497,172537,-0.05,-0.06,-0.09,-84.37,-79.00,62.31,-0.06,-1.06,-1.69,0.00,0.08,0.09,-140.94,42.13,195.56,-1.44,-0.56,-0.81,2,2
1772051495.653572,172728,-0.08,-0.04,0.03,-82.69,-79.00,62.38,-2.62,0.37,0.25,-0.02,0.04,0.12,-140.75,42.13,195.37,1.56,2.31,-1.56,2,2
1772051495.844126,172919,0.06,0.25,0.02,-82.81,-78.44,61.19,-0.56,-0.44,2.37,-0.02,0.12,0.13,-140.50,42.25,195.50,-0.44,0.37,0.19,2,2
1772051496.033831,173109,-0.03,0.00,-0.04,-83.06,-78.44,61.06,-1.37,2.50,-0.88,0.03,0.04,0.04,-140.62,42.31,195.25,-0.56,-0.88,0.81,2,2
1772051496.223887,173298,0.01,-0.04,-0.03,-84.19,-78.56,61.31,-0.13,2.44,-1.87,-0.05,0.04,0.06,-140.69,42.31,195.25,-0.37,-0.44,0.19,2,2
1772051496.415548,173490,-0.05,0.02,-0.01,-84.56,-78.56,61.44,0.19,-0.06,1.25,0.01,0.08,0.12,-140.50,42.31,195.62,-0.88,0.19,-0.13,3,3
1772051496.606714,173682,-0.38,-0.04,0.19,-86.37,-78.56,61.50,1.00,10.75,1.37,-0.02,0.15,0.04,-140.44,42.25,195.81,-0.94,-1.56,0.81,3,3
1772051496.797410,173872,0.35,0.11,-0.10,-106.19,-77.44,60.63,4.25,28.31,8.31,0.07,0.07,0.17,-140.87,42.19,196.25,1.31,-1.37,3.12,3,3
1772051496.987047,174062,0.23,0.06,-0.25,-114.81,-76.00,59.63,0.81,-2.62,1.69,0.12,-0.10,0.10,-141.31,42.38,195.75,-1.75,0.31,1.56,4,4
1772051497.177046,174252,-0.11,0.17,0.03,-110.62,-76.19,59.69,-2.12,-3.62,0.94,-0.01,0.07,0.09,-140.94,42.56,195.94,0.56,-0.94,-1.56,4,4
1772051497.369042,174444,-0.07,-0.06,-0.13,-110.44,-76.44,59.81,0.94,1.56,-1.19,0.00,0.00,0.11,-141.00,42.44,195.81,0.37,-0.44,-2.00,4,4
1772051497.560433,174635,0.14,0.25,-0.12,-107.87,-76.37,60.13,16.12,-19.50,4.50,-0.39,0.14,0.05,-140.06,42.06,197.37,-4.81,2.69,-3.56,4,4
1772051497.752454,174827,-0.31,-0.20,0.14,-94.56,-75.44,62.31,5.50,-11.63,11.13,0.29,-0.04,0.56,-138.12,42.38,199.06,-5.62,1.00,-1.25,4,5
1772051497.941813,175017,0.01,0.01,-0.20,-92.81,-73.56,60.13,-9.88,14.88,14.06,-0.15,0.16,0.18,-136.62,42.25,201.06,-7.31,-1.75,0.06,5,5
1772051498.131433,175206,0.03,0.48,0.30,-101.19,-72.19,58.00,17.87,11.38,-8.75,-0.08,-0.04,-0.12,-136.81,42.13,201.37,4.19,2.69,3.50,4,6
1772051498.323349,175398,0.01,-0.94,-0.18,-104.62,-74.19,62.81,4.37,-11.38,1.12,0.17,-0.13,0.03,-137.19,43.00,199.00,7.56,5.12,-4.69,4,5
1772051498.514739,175590,0.03,0.54,-0.05,-104.56,-73.75,60.63,-6.31,3.00,3.75,0.06,0.10,0.26,-136.69,43.13,199.12,-1.25,-1.00,1.75,3,5
1772051498.706451,175781,0.07,0.09,-0.12,-104.31,-73.69,59.88,-1.75,0.81,-5.75,0.00,-0.11,-0.02,-137.25,43.13,198.69,1.37,-1.00,1.00,3,5
1772051498.896035,175971,0.03,-0.18,-0.07,-105.31,-74.87,61.06,-2.81,-2.00,-5.50,0.07,0.00,0.14,-137.44,43.13,198.75,-0.44,-2.69,0.75,3,5
1772051499.085426,176160,-0.02,0.04,-0.03,-105.31,-75.56,61.44,-0.37,1.25,-1.00,0.00,-0.03,0.06,-137.81,43.00,198.75,-0.06,-0.75,1.31,3,5
1772051499.276827,176352,0.00,-0.17,-0.09,-105.19,-75.81,62.50,2.62,-4.37,-2.37,-0.02,-0.03,0.13,-138.00,42.94,198.87,0.62,-1.50,0.25,3,6
1772051499.468472,176543,0.05,0.06,-0.11,-104.31,-75.94,63.56,8.63,-1.44,0.19,0.03,-0.03,0.08,-138.12,42.69,199.31,-0.75,-2.12,0.44,3,6
1772051499.660379,176735,0.00,-0.16,0.00,-103.62,-76.31,65.12,0.88,2.87,-3.31,0.01,0.05,0.03,-138.31,42.31,199.87,0.81,-2.31,-1.00,4,5
1772051499.852241,176927,0.00,0.02,0.01,-103.25,-76.56,65.12,-1.75,-0.31,0.88,-0.01,-0.01,0.11,-138.50,42.13,200.06,-0.06,-1.25,-0.13,4,5
1772051500.044198,177119,0.03,0.01,-0.04,-102.62,-76.37,64.50,-2.81,-1.06,1.56,0.03,-0.04,0.03,-138.62,42.13,200.06,-0.56,-0.88,0.62,4,4
1772051500.233184,177308,-0.05,-0.05,-0.03,-101.31,-76.25,64.25,0.06,-0.75,-0.50,0.02,0.01,0.11,-138.62,42.13,200.06,-0.62,0.06,1.31,3,4
1772051500.425988,177500,-0.09,-0.07,-0.03,-101.06,-76.37,64.31,-0.75,2.31,-0.37,-0.02,-0.07,0.09,-138.69,42.13,199.94,0.31,-1.12,-0.69,3,4
1772051500.617430,177692,-0.06,-0.02,-0.02,-102.31,-76.25,63.94,-1.44,0.37,0.75,0.05,-0.03,0.14,-138.62,42.13,200.00,-0.88,0.94,0.13,3,4
1772051500.809155,177884,-0.05,0.12,-0.03,-103.56,-75.81,63.50,1.12,0.69,1.25,0.01,-0.02,0.07,-138.56,42.06,200.25,-0.25,-1.94,-0.62,3,6
1772051500.998165,178073,0.04,0.04,0.00,-105.25,-75.56,64.31,8.56,-1.56,1.37,0.00,0.00,0.15,-138.44,42.19,200.37,-0.44,1.56,0.62,3,6
1772051501.187717,178263,0.01,0.08,-0.04,-105.37,-75.44,64.87,-2.56,-0.06,-0.88,0.00,-0.02,0.10,-138.56,42.25,200.37,1.37,-0.75,0.00,3,5
1772051501.380033,178455,0.08,-0.13,-0.06,-106.12,-75.69,65.00,-2.50,1.00,-1.94,0.09,-0.03,0.20,-138.56,42.25,200.50,-0.50,0.50,1.00,3,4
1772051501.571732,178647,0.03,0.19,-0.07,-105.06,-76.25,64.19,-4.25,-0.19,-2.25,0.01,-0.02,0.06,-138.62,42.25,200.44,-0.06,1.12,0.56,3,4
1772051501.762758,178837,-0.12,-0.17,-0.04,-102.50,-76.44,64.94,0.00,-4.00,-2.12,0.01,-0.02,0.12,-138.56,42.25,200.44,0.50,-1.06,-0.19,3,4
1772051501.953233,179028,0.08,-0.01,-0.04,-102.06,-76.62,65.19,2.44,-2.87,-0.81,0.06,-0.04,0.13,-138.69,42.13,200.50,-1.00,-0.37,1.12,2,4
1772051502.142828,179217,-0.07,-0.29,-0.04,-99.94,-76.94,66.75,3.62,-2.50,-2.12,0.00,0.01,0.16,-138.69,42.06,200.50,-1.00,-1.50,0.62,3,4
1772051502.334763,179409,-0.02,-0.02,0.04,-99.19,-77.00,66.69,-0.81,-1.00,-0.13,0.03,-0.04,0.12,-138.75,42.06,200.50,0.62,0.06,-0.31,3,4
1772051502.525993,179601,-0.01,0.05,-0.07,-99.44,-76.94,66.44,1.37,-1.75,0.62,0.06,0.00,0.14,-138.81,42.00,200.50,1.12,0.50,-0.25,3,4
1772051502.717195,179792,0.06,0.02,-0.06,-99.87,-76.87,66.44,-1.06,3.00,1.19,0.02,0.00,0.14,-138.81,42.00,200.44,-0.06,-0.44,-0.37,3,3
1772051502.909597,179985,0.04,0.01,-0.07,-101.06,-76.75,66.19,-1.00,0.94,-0.44,0.00,0.02,0.17,-138.94,41.88,200.62,-0.06,-0.37,0.00,3,3
1772051503.100311,180175,0.05,-0.01,-0.07,-100.81,-76.75,66.19,-0.56,0.19,0.25,0.01,0.06,0.18,-138.94,41.81,200.81,-0.56,-0.56,0.31,3,3
1772051503.291613,180367,-0.03,0.12,0.00,-100.12,-76.81,66.00,0.06,0.25,-0.44,0.01,0.00,0.10,-139.00,41.69,201.12,0.44,-0.69,-0.50,3,3
1772051503.484412,180560,-0.07,-0.06,-0.04,-100.62,-77.00,66.37,0.50,0.31,1.94,0.06,-0.06,0.11,-139.12,41.63,201.25,0.37,0.44,0.56,3,4
1772051503.677346,180753,0.06,0.00,-0.06,-100.75,-76.81,66.06,-1.06,0.75,2.87,0.05,0.03,0.15,-139.00,41.75,201.06,-0.19,0.69,0.50,3,3
1772051503.868989,180944,-0.05,0.05,-0.01,-100.56,-76.62,65.69,1.37,1.06,0.19,0.08,0.00,0.20,-139.00,41.81,201.00,0.06,-0.25,0.00,4,4
1772051504.060353,181136,-0.01,0.06,-0.06,-101.06,-76.50,65.56,0.00,0.37,0.69,0.05,0.03,0.15,-138.94,41.88,201.00,-1.06,0.00,0.81,3,3
1772051504.251352,181326,0.02,-0.03,-0.05,-101.31,-76.44,65.56,-0.81,0.50,-0.31,0.12,0.00,0.23,-138.94,41.88,201.06,-0.44,0.37,0.62,3,4
1772051504.443198,181518,0.00,0.05,-0.13,-101.50,-76.44,65.44,-0.94,-0.19,0.06,0.11,-0.01,0.13,-138.81,42.00,201.00,0.25,-0.56,-0.13,3,5
1772051504.635594,181711,0.05,-0.03,-0.07,-101.31,-76.62,65.56,0.25,-1.44,0.56,0.13,-0.01,0.18,-138.69,42.06,201.00,-0.31,-0.44,0.25,4,5
1772051504.827905,181903,-0.09,0.00,-0.08,-100.81,-76.56,65.25,-0.81,3.50,-2.94,-0.02,0.04,0.11,-138.69,42.06,201.00,-0.88,-1.00,0.00,4,5
1772051505.019763,182095,-0.09,0.08,0.07,-100.44,-76.69,65.12,-0.25,0.37,-0.88,0.09,0.00,0.17,-138.69,42.06,201.00,0.25,0.56,-0.69,4,6
1772051505.210863,182286,0.00,0.06,-0.05,-101.81,-76.50,64.69,-4.81,1.37,1.31,0.04,-0.07,0.09,-138.62,42.13,200.94,0.25,-0.13,0.25,4,5
1772051505.401360,182476,-0.01,0.00,-0.08,-101.87,-76.44,64.44,1.50,-0.06,-0.13,0.04,-0.01,0.12,-138.56,42.19,200.87,0.19,-0.50,-0.31,4,5
1772051505.593698,182669,0.01,0.08,-0.06,-101.50,-76.50,64.37,-0.19,-1.62,-0.81,0.11,-0.02,0.14,-138.62,42.25,200.81,0.56,-0.88,0.06,4,5
1772051505.786077,182861,-0.01,0.02,-0.04,-99.06,-77.25,64.56,-7.81,-8.81,-3.06,0.20,-0.13,0.08,-138.69,41.81,201.37,1.94,-3.12,-2.69,4,5
1772051505.977533,183052,0.36,-0.15,-0.11,-99.44,-77.44,64.37,-2.62,2.69,0.44,-0.18,0.19,0.01,-138.75,41.31,202.12,-0.31,-0.25,-0.31,4,5
1772051506.167181,183242,-0.08,-0.13,0.04,-88.75,-77.94,62.94,-21.50,-19.25,-3.37,-0.05,0.06,0.13,-138.31,41.75,201.62,-2.87,4.75,2.25,4,5
1772051506.356284,183431,-0.35,0.33,-0.08,-79.62,-77.75,60.19,-8.06,4.19,-3.44,0.34,-0.19,0.25,-138.31,42.44,200.31,8.69,4.06,-4.69,4,6
1772051506.548446,183624,0.12,0.18,0.09,-84.75,-78.44,59.81,-6.25,0.19,-0.31,-0.35,0.25,0.01,-138.81,41.75,199.19,5.06,-1.06,-5.50,2,5
1772051506.739878,183815,-0.24,0.32,0.20,-83.19,-78.25,60.00,12.75,1.81,-2.31,0.00,-0.04,0.06,-139.00,41.31,199.69,5.12,-0.31,-2.44,3,5
1772051506.930841,184006,0.17,-0.15,-0.17,-94.81,-77.87,63.13,19.75,11.06,1.56,-0.03,0.09,0.18,-139.44,40.88,200.94,1.12,-3.62,0.31,4,5
1772051507.120713,184196,-0.14,-0.32,-0.05,-102.00,-79.25,66.06,-1.00,0.13,-4.56,-0.04,-0.05,0.00,-140.37,40.25,200.56,6.19,-2.44,1.56,4,5
1772051507.309654,184385,0.00,0.08,0.01,-100.56,-79.12,65.37,1.25,-1.00,3.87,0.06,-0.10,0.02,-140.69,41.19,198.94,0.81,2.31,4.25,4,5
1772051507.502264,184577,0.22,-0.14,-0.21,-103.69,-79.06,65.94,5.06,0.94,-0.62,0.11,-0.03,0.13,-140.75,41.75,198.62,-1.50,-0.62,2.31,4,5
1772051507.693909,184769,0.04,-0.28,-0.14,-101.44,-79.50,66.06,-7.44,-5.12,0.31,0.04,-0.02,0.02,-140.62,41.75,198.75,-1.94,-0.56,-0.25,4,5
1772051507.884926,184960,-0.08,0.36,0.29,-91.75,-80.31,63.31,-14.88,-3.56,-4.12,-0.08,0.03,0.04,-140.44,41.75,199.25,-2.00,-0.25,0.31,4,5
1772051508.074198,185149,-0.23,-0.06,0.06,-88.56,-80.06,63.06,-0.06,2.25,2.87,0.08,0.01,0.11,-140.19,42.00,199.00,-0.50,1.12,1.37,4,4
1772051508.264576,185340,-0.14,0.31,0.09,-96.31,-79.19,62.81,14.06,12.69,6.69,-0.08,0.15,0.20,-140.06,42.19,198.87,-0.88,0.62,-0.19,4,3
1772051508.456149,185532,0.08,-0.15,-0.14,-106.94,-77.56,64.06,2.94,7.81,4.81,0.05,0.02,0.05,-140.25,42.50,198.44,0.31,-2.31,2.94,4,2
1772051508.647714,185723,0.07,0.00,-0.12,-109.87,-77.44,63.13,-0.75,4.69,-0.06,-0.12,-0.05,-0.11,-140.75,42.44,198.50,-1.69,-3.31,3.56,4,2
1772051508.838361,185914,0.05,-0.06,-0.07,-112.75,-77.75,64.00,7.62,1.31,-2.31,0.04,0.00,0.03,-141.19,42.44,198.62,-0.62,0.06,1.50,4,2
1772051509.027801,186103,0.04,-0.29,-0.05,-114.81,-78.12,65.50,-1.50,-1.00,1.62,0.19,0.01,0.00,-140.94,42.69,198.37,0.13,2.50,1.31,4,2
1772051509.218674,186294,-0.08,0.27,0.02,-112.75,-77.56,64.00,-2.75,-1.50,2.37,0.03,0.08,0.09,-140.81,42.88,198.06,-1.50,-1.31,-0.31,4,2
1772051509.410488,186485,-0.15,0.02,0.05,-112.31,-77.56,64.12,0.50,-0.06,-0.25,0.20,-0.06,0.05,-140.87,42.81,198.31,-0.88,-2.06,-0.44,4,2
1772051509.601244,186677,0.00,0.00,-0.08,-113.81,-77.44,64.25,-0.13,-2.31,0.37,0.00,0.02,0.07,-140.75,42.75,198.50,0.19,0.06,0.19,4,1
1772051509.792570,186868,-0.02,0.08,0.00,-112.69,-77.50,64.12,0.81,-0.56,-0.06,0.03,0.02,0.07,-140.75,42.75,198.50,-0.37,-0.06,0.13,3,1
1772051509.983327,187059,0.03,0.10,0.00,-112.81,-77.56,64.19,-0.88,0.50,0.50,0.02,0.00,0.03,-140.75,42.81,198.50,-0.06,-0.13,0.44,3,1
1772051510.173228,187248,0.18,-0.08,-0.19,-111.87,-77.69,64.12,-3.31,-4.44,0.37,0.04,-0.01,0.00,-140.69,42.75,198.62,-0.06,-0.31,-1.44,3,1
1772051510.364342,187439,-0.22,0.20,0.14,-102.69,-78.62,63.00,-11.13,-7.37,-3.50,-0.04,0.04,0.09,-140.56,42.69,198.81,0.44,-0.13,-1.06,4,1
1772051510.554925,187631,0.00,0.00,0.01,-99.37,-78.81,62.75,0.62,-1.31,0.06,0.07,0.01,0.10,-140.44,42.63,198.94,0.00,0.62,0.44,3,1
1772051510.746173,187821,0.00,0.08,-0.01,-99.81,-78.81,62.81,-0.19,2.81,0.19,0.01,0.00,0.06,-140.44,42.63,198.94,0.25,-0.31,0.00,3,1
1772051510.936557,188012,-0.02,0.07,0.02,-103.44,-78.69,62.94,2.69,5.19,0.37,-0.01,0.00,0.02,-140.50,42.63,198.94,-0.25,0.37,0.31,3,0
1772051511.126867,188202,0.07,0.07,-0.08,-107.62,-78.31,63.25,0.25,3.19,2.44,0.15,-0.04,0.16,-140.69,42.63,198.87,0.56,0.19,1.00,3,1
1772051511.318480,188394,-0.01,0.05,-0.05,-108.62,-78.37,63.44,-0.19,0.62,0.31,0.03,-0.03,0.02,-140.81,42.63,198.81,-0.69,0.13,0.69,3,1
1772051511.509808,188585,0.04,0.05,-0.09,-109.06,-78.31,63.69,1.19,-0.56,0.50,0.03,0.01,0.11,-140.75,42.63,198.87,-0.19,0.13,0.37,3,1
1772051511.701319,188777,0.00,0.09,0.00,-108.31,-78.37,63.63,-0.88,0.06,1.31,0.01,0.00,0.06,-140.75,42.63,198.87,-0.31,-0.19,0.31,3,1
1772051511.894590,188970,0.01,0.03,-0.02,-108.25,-78.31,63.56,0.56,0.56,-0.31,0.03,0.00,0.09,-140.81,42.63,198.87,0.19,-0.37,0.44,3,1
1772051512.087079,189162,-0.04,0.00,0.00,-108.25,-78.31,63.50,-0.50,0.31,0.88,0.06,-0.01,0.08,-140.81,42.63,198.81,-0.31,0.06,0.69,3,2
1772051512.278523,189354,0.01,0.00,-0.01,-108.12,-78.25,63.44,0.44,0.00,0.00,0.10,-0.02,0.09,-140.81,42.69,198.81,-0.06,-0.13,-0.13,3,1
1772051512.471133,189546,0.01,0.02,-0.05,-107.69,-78.25,63.38,-0.56,-1.50,0.37,0.06,-0.02,0.11,-140.81,42.63,198.87,0.00,-0.37,-0.94,3,1
1772051512.662596,189737,-0.04,0.09,0.00,-104.62,-78.44,63.19,-3.25,-5.25,-0.31,0.09,-0.04,0.12,-140.69,42.50,199.06,-0.44,-0.88,-0.62,3,1
1772051512.853735,189929,-0.01,-0.01,0.07,-103.81,-78.69,63.44,1.87,-0.06,-1.19,0.07,0.01,0.10,-140.69,42.38,199.25,0.19,-0.31,-0.31,2,1
1772051513.045024,190120,-0.02,0.04,-0.05,-104.06,-78.75,63.50,-0.37,0.94,0.31,0.05,-0.01,0.11,-140.69,42.38,199.25,-0.06,-0.06,-0.44,3,2
1772051513.235408,190310,-0.02,0.08,-0.03,-104.19,-78.75,63.50,-0.75,-0.81,0.06,0.10,-0.02,0.07,-140.62,42.38,199.25,-0.25,-0.88,-0.62,3,2
1772051513.426669,190502,-0.02,0.03,0.03,-104.31,-78.75,63.44,0.13,1.56,0.56,-0.01,0.04,0.01,-140.75,42.31,199.31,0.00,-1.19,-0.31,4,2
1772051513.617985,190693,-0.01,-0.04,-0.06,-106.19,-78.62,63.56,3.19,0.75,-1.19,0.04,-0.01,0.08,-140.75,42.38,199.25,0.44,-0.25,0.50,3,2
1772051513.808339,190884,0.00,-0.04,-0.01,-107.69,-78.62,63.81,1.62,1.19,0.50,0.07,-0.01,0.11,-140.69,42.44,199.19,0.00,0.44,0.13,3,2
1772051513.998568,191074,0.03,0.08,-0.02,-109.06,-78.37,63.50,-0.25,2.37,1.25,0.06,-0.02,0.09,-140.62,42.50,199.12,0.06,-0.06,-0.25,5,4
1772051514.188883,191264,0.01,0.12,-0.05,-109.81,-78.19,63.31,-0.69,0.44,0.25,0.07,0.00,0.03,-140.62,42.56,199.06,-1.12,-1.25,0.19,5,4
1772051514.380155,191455,0.00,0.04,-0.03,-109.44,-78.19,63.31,-0.56,-1.00,-0.13,0.07,0.00,0.09,-140.62,42.56,199.19,-0.31,-1.00,0.13,5,4
1772051514.571727,191647,-0.05,0.03,-0.01,-108.44,-78.25,63.38,0.25,-0.69,-0.62,0.06,-0.03,0.09,-140.62,42.50,199.25,0.37,-0.50,0.06,5,4
1772051514.765098,191840,-0.01,-0.04,-0.04,-108.50,-78.31,63.44,0.31,-0.37,0.19,0.07,-0.01,0.09,-140.62,42.50,199.25,-0.31,-0.25,0.25,5,4
1772051514.955071,192030,0.11,0.00,-0.06,-107.56,-78.19,63.00,-1.81,-2.19,0.44,0.08,-0.04,0.10,-140.62,42.50,199.25,0.13,0.37,0.06,3,3
1772051515.146717,192222,0.00,0.04,0.03,-105.06,-78.31,62.81,-0.44,-0.19,0.19,0.09,0.00,0.15,-140.56,42.44,199.37,-0.19,-0.19,-0.69,4,3
1772051515.337956,192413,-0.01,0.14,-0.01,-104.94,-78.37,62.69,-1.19,-0.25,-0.19,0.05,-0.06,0.15,-140.50,42.38,199.50,0.06,0.37,-0.25,4,3
1772051515.531538,192607,-0.03,0.03,-0.02,-106.25,-78.31,62.94,0.69,2.37,-0.31,0.10,-0.07,0.11,-140.56,42.31,199.56,-1.25,-2.12,0.00,4,3
1772051515.723151,192798,-0.05,-0.06,-0.06,-108.56,-78.31,63.31,2.62,1.37,0.44,0.08,-0.05,0.08,-140.50,42.25,199.81,0.69,-0.94,-0.19,4,3
1772051515.914285,192990,0.02,0.00,-0.02,-109.00,-78.25,63.31,2.00,-1.25,-0.56,0.12,-0.08,0.15,-140.56,42.19,199.87,0.06,0.37,-0.44,2,1
1772051516.105020,193181,0.05,0.02,0.00,-108.81,-78.25,63.31,0.06,-0.19,0.19,0.11,-0.04,0.17,-140.56,42.13,199.87,0.31,0.19,-0.13,3,1
1772051516.296364,193371,-0.01,0.06,-0.01,-108.75,-78.25,63.25,-0.25,0.25,0.50,0.12,-0.06,0.11,-140.56,42.13,199.87,-0.25,-0.37,-0.13,3,1
1772051516.487753,193563,0.02,0.05,-0.04,-108.81,-78.31,63.25,-0.50,-0.56,-0.62,0.12,-0.06,0.15,-140.56,42.13,199.94,0.31,0.00,-0.13,2,1
1772051516.678622,193754,-0.02,0.06,-0.02,-108.56,-78.31,63.25,-0.94,0.50,0.50,0.12,-0.03,0.15,-140.56,42.13,199.94,0.13,-0.25,-0.06,4,2
1772051516.870151,193945,0.00,0.06,-0.06,-108.81,-78.31,63.25,0.13,0.88,-0.13,0.12,-0.03,0.11,-140.56,42.13,199.94,-0.69,-0.62,-0.19,4,3
1772051517.062160,194137,0.04,0.03,-0.03,-108.69,-78.31,63.25,-0.56,-0.62,0.25,0.13,-0.01,0.13,-140.62,42.06,200.06,-0.13,-0.62,-0.06,4,3
1772051517.251524,194326,0.02,0.04,-0.08,-107.81,-78.44,63.25,-1.00,-2.62,-1.19,0.12,-0.11,0.13,-140.69,42.00,200.12,0.25,-0.56,-0.06,3,2
1772051517.443054,194518,-0.06,-0.02,0.00,-105.06,-78.69,63.44,0.13,-2.62,-0.31,0.09,-0.03,0.13,-140.62,42.13,200.00,-0.13,-0.25,0.06,4,3
1772051517.636431,194712,0.00,0.05,-0.07,-104.12,-78.75,63.31,0.19,0.06,-0.06,0.09,-0.04,0.15,-140.62,42.25,199.87,0.13,-0.37,-0.50,4,3
1772051517.829562,194905,0.00,0.06,-0.05,-104.62,-78.69,63.19,-1.25,1.37,0.50,0.07,-0.05,0.08,-140.56,42.25,199.87,0.50,-0.19,0.13,3,3
1772051518.021578,195097,0.01,0.08,-0.07,-105.19,-78.69,62.94,-1.25,0.00,-1.06,0.17,-0.07,0.10,-140.62,42.13,200.00,0.56,-1.31,-1.50,3,3
1772051518.212873,195288,0.14,0.05,-0.03,-106.75,-78.87,63.00,1.00,0.13,-0.88,0.04,-0.01,0.01,-140.62,41.88,200.37,-0.37,-0.81,-1.06,3,3
1772051518.403372,195479,-0.07,-0.06,0.00,-106.56,-79.06,63.25,1.12,0.75,1.69,0.02,-0.01,0.08,-140.56,42.00,200.12,-1.00,0.62,1.12,5,4
1772051518.594631,195670,-0.06,0.01,0.02,-106.44,-78.62,63.50,6.87,-1.56,1.56,0.12,-0.04,0.15,-140.25,42.38,200.12,-0.88,-0.25,1.94,3,3
1772051518.785307,195861,0.11,0.05,-0.16,-109.19,-78.44,63.69,2.19,3.00,-1.56,0.04,-0.02,0.06,-140.44,42.44,200.06,-1.12,-0.56,0.69,3,2
1772051518.976448,196052,-0.05,0.06,-0.02,-109.87,-78.50,64.00,-0.56,-0.44,-0.69,0.04,-0.08,0.02,-140.50,42.50,200.00,-0.13,-0.88,0.25,4,2
1772051519.167080,196242,0.00,-0.07,-0.04,-110.62,-78.50,64.25,0.88,0.25,0.13,0.06,-0.04,0.08,-140.50,42.56,200.00,-0.62,-0.13,0.00,4,2
1772051519.357618,196433,0.01,0.06,-0.05,-110.81,-78.37,64.12,-0.13,0.88,0.19,0.04,-0.03,0.11,-140.50,42.63,199.94,0.00,-0.06,-0.19,4,2
1772051519.549095,196624,-0.03,0.04,-0.08,-110.81,-78.37,64.12,-0.31,-1.25,-0.75,0.04,-0.03,0.09,-140.50,42.63,199.87,0.06,0.13,-0.06,4,2
1772051519.740065,196815,0.07,0.04,-0.07,-109.56,-78.50,64.06,-0.56,-3.00,0.06,0.07,-0.06,0.07,-140.44,42.63,199.94,0.31,-0.25,-0.69,4,2
1772051519.930816,197006,0.03,-0.07,-0.11,-107.69,-78.62,64.12,-1.12,-2.62,-0.56,0.00,0.01,0.08,-140.37,42.56,200.06,0.19,-0.19,-0.94,4,2
1772051520.121676,197197,-0.04,0.11,0.00,-104.06,-78.81,63.88,-0.62,-1.19,0.06,0.04,-0.01,0.08,-140.44,42.56,200.06,-0.06,-0.31,-0.25,4,2
1772051520.311477,197387,-0.06,0.00,0.00,-104.00,-78.94,64.06,-0.13,0.00,0.00,0.07,0.00,0.06,-140.44,42.56,200.06,0.06,-0.50,0.37,4,1
1772051520.502822,197578,-0.02,-0.05,-0.02,-105.06,-78.87,64.19,1.44,1.06,0.00,0.08,-0.01,0.10,-140.50,42.56,200.12,0.44,-0.75,0.50,3,1
1772051520.693701,197769,0.03,0.04,-0.08,-106.56,-78.81,64.19,0.00,2.37,0.62,0.06,-0.04,0.04,-140.56,42.56,200.12,-0.56,-0.50,1.06,3,1
1772051520.884525,197960,0.03,-0.08,-0.08,-107.87,-78.87,64.87,4.69,0.50,-0.81,0.09,-0.04,0.11,-140.62,42.56,200.06,0.13,0.44,-0.06,3,1
1772051521.074582,198150,0.00,0.09,-0.04,-107.69,-78.87,64.87,-1.31,0.88,0.50,0.09,-0.03,0.10,-140.62,42.56,200.06,-0.13,0.25,-0.62,3,1
1772051521.264923,198340,0.06,0.01,-0.08,-108.12,-78.87,64.81,0.19,1.19,0.00,0.07,0.00,0.10,-140.56,42.50,200.19,-0.31,-0.69,-0.13,2,1
1772051521.456229,198532,-0.02,0.05,-0.06,-108.00,-78.87,64.75,-0.81,-0.31,0.37,0.08,-0.02,0.12,-140.56,42.50,200.19,0.31,0.06,0.06,3,1
1772051521.647608,198723,0.04,0.05,-0.11,-108.00,-78.87,64.75,0.25,0.06,-0.06,0.07,-0.03,0.03,-140.56,42.50,200.25,0.00,-0.31,-0.25,3,1
1772051521.838496,198914,-0.06,0.03,-0.08,-105.31,-78.94,64.37,-4.87,-5.31,1.31,0.05,-0.04,0.06,-140.44,42.38,200.44,0.06,-0.13,-0.69,2,1
1772051522.028068,199103,0.03,0.05,-0.02,-102.25,-79.00,63.94,0.31,-1.62,-0.13,0.03,0.00,0.13,-140.37,42.31,200.56,-0.25,0.00,-0.44,3,1
1772051522.218429,199294,-0.03,0.07,-0.06,-101.50,-79.00,63.94,-0.31,0.37,-0.31,0.05,-0.03,0.14,-140.37,42.31,200.62,0.19,0.19,0.31,2,1
1772051522.409519,199485,0.02,0.12,-0.01,-101.75,-79.00,63.94,0.56,0.31,-0.31,0.09,-0.06,0.13,-140.31,42.31,200.56,0.37,-0.19,-0.25,2,1
1772051522.600331,199676,0.05,0.04,-0.10,-103.62,-78.87,63.94,0.69,1.81,0.50,0.09,-0.01,0.12,-140.37,42.25,200.69,0.19,-0.94,0.31,2,1
1772051522.791770,199867,-0.03,-0.05,-0.06,-103.69,-79.00,64.12,0.88,0.94,0.06,0.06,-0.02,0.08,-140.37,42.19,200.75,-0.37,-0.81,0.19,2,1
1772051522.981868,200057,0.00,-0.04,-0.07,-104.31,-78.94,64.25,3.56,-0.37,-0.56,0.11,-0.03,0.13,-140.37,42.19,200.87,0.31,-0.94,-0.13,2,1
1772051523.172086,200247,0.02,0.00,-0.07,-104.50,-78.94,64.37,0.31,-0.37,-0.50,0.09,-0.06,0.14,-140.44,42.13,200.94,0.56,-0.06,0.44,3,1
1772051523.363328,200439,-0.03,0.05,-0.07,-104.25,-78.94,64.25,0.31,-0.06,0.25,0.11,-0.07,0.10,-140.44,42.13,200.94,-0.06,-0.37,0.25,3,1
1772051523.553954,200630,0.04,0.04,-0.10,-104.56,-79.00,64.31,-0.06,0.00,-0.69,0.10,-0.07,0.13,-140.44,42.13,200.87,0.06,0.37,0.37,2,1
1772051523.745163,200821,0.03,0.11,-0.06,-104.25,-79.00,64.25,-0.81,0.31,0.44,0.12,-0.07,0.10,-140.44,42.13,200.87,-0.06,-0.13,0.13,3,1
1772051523.935332,201011,0.03,0.02,-0.16,-103.69,-79.00,64.25,-1.25,-2.00,0.50,0.13,-0.11,0.14,-140.44,42.13,200.94,0.44,0.44,-0.94,2,1
1772051524.124886,201200,-0.04,0.16,0.01,-99.44,-79.12,63.75,-2.44,-3.06,-0.56,0.05,-0.05,0.10,-140.25,42.13,201.06,-2.62,0.31,-0.56,3,1
1772051524.315785,201391,0.12,-0.04,-0.24,-100.06,-78.75,63.38,-1.12,1.62,1.62,0.05,-0.10,0.15,-139.37,42.25,201.94,0.13,1.75,-1.19,2,1
1772051524.506431,201582,0.04,0.15,0.01,-99.56,-78.31,62.75,2.12,-0.88,0.19,0.04,-0.08,0.05,-139.31,42.31,201.94,0.44,0.06,-0.13,2,1
1772051524.697426,201772,-0.05,0.01,-0.02,-99.50,-78.50,63.19,-1.44,-0.62,-1.87,0.03,-0.04,0.10,-139.31,42.19,202.25,-0.94,-1.56,-1.81,2,1
1772051524.886487,201962,-0.16,0.01,0.06,-99.81,-78.81,63.38,-7.69,-1.44,1.75,0.15,-0.14,0.05,-139.75,42.44,200.37,7.87,1.06,-0.88,3,1
1772051525.076707,202152,0.08,0.04,-0.18,-102.75,-78.37,62.69,6.25,2.56,-2.12,0.09,0.00,0.16,-140.06,42.44,200.37,-0.19,-1.31,1.56,2,1
1772051525.268590,202344,0.02,0.00,-0.08,-105.19,-78.69,63.56,1.87,0.44,-1.19,0.07,-0.07,0.04,-140.25,42.38,200.44,-0.06,-0.62,0.06,3,1
1772051525.459604,202535,-0.02,-0.06,-0.06,-105.87,-78.87,64.00,0.19,0.44,-0.06,0.05,-0.02,0.08,-140.25,42.38,200.44,0.19,0.37,-0.37,3,1
1772051525.650422,202726,0.03,0.07,-0.08,-106.06,-78.69,63.69,-0.56,0.75,0.94,0.08,-0.04,0.10,-140.25,42.50,200.31,-0.25,0.31,-0.13,3,1
1772051525.841327,202917,0.00,0.09,-0.10,-106.06,-78.56,63.56,-0.75,-0.94,-0.31,0.06,-0.06,0.09,-140.25,42.50,200.31,-0.25,-0.44,-0.19,3,1
1772051526.031938,203107,0.07,-0.03,-0.15,-105.06,-78.62,63.56,-0.44,-2.31,0.06,0.02,-0.05,0.06,-140.25,42.50,200.37,0.44,-0.31,-0.69,2,1
1772051526.222699,203298,-0.11,0.06,0.02,-100.25,-78.87,63.38,-0.94,-4.06,0.06,0.02,-0.02,0.05,-140.19,42.44,200.44,0.13,0.06,-0.31,2,1
1772051526.413837,203489,-0.05,-0.03,-0.01,-99.12,-78.87,63.38,-0.44,-0.75,0.31,0.06,-0.06,0.09,-140.12,42.44,200.37,-0.31,-0.25,0.50,3,1
1772051526.604300,203680,0.04,-0.02,-0.07,-100.12,-78.75,63.25,1.06,0.81,0.25,-0.01,-0.02,0.09,-140.00,42.50,200.50,0.75,1.31,-0.50,3,1
1772051526.794923,203870,-0.01,0.16,-0.05,-100.31,-78.56,63.06,-0.56,2.62,2.00,0.08,-0.03,0.06,-139.94,42.56,200.56,0.00,-0.19,-0.88,2,1
1772051526.985026,204061,0.01,0.03,-0.02,-102.25,-78.50,63.44,2.69,1.81,1.25,0.03,-0.03,0.07,-139.87,42.50,200.62,0.31,-0.69,0.06,3,1
1772051527.176212,204252,0.00,-0.02,-0.09,-102.87,-78.56,63.69,1.81,-0.37,-0.88,0.05,-0.03,0.08,-139.94,42.50,200.69,0.00,-0.13,-0.13,2,1
1772051527.366753,204442,0.03,0.05,-0.08,-103.00,-78.56,63.69,-0.19,0.37,0.13,0.05,-0.04,0.07,-139.94,42.50,200.62,0.19,0.31,-0.37,3,1
1772051527.557485,204633,-0.01,0.05,-0.06,-103.00,-78.62,63.69,-0.13,-0.25,-0.37,0.06,-0.05,0.07,-139.94,42.56,200.56,0.31,0.19,0.00,3,1
1772051527.748100,204824,0.00,0.08,-0.08,-103.19,-78.56,63.56,-0.37,0.13,0.31,0.06,-0.05,0.02,-139.94,42.56,200.56,0.31,-0.19,-0.06,3,1
1772051527.938659,205014,0.01,0.04,-0.07,-103.37,-78.62,63.69,0.00,0.50,-0.69,0.06,-0.05,0.08,-139.94,42.56,200.56,0.06,0.19,-0.13,3,1
1772051528.130115,205205,-0.01,0.08,-0.11,-103.31,-78.62,63.63,-1.12,-0.88,0.13,0.08,-0.05,0.05,-139.94,42.56,200.50,-0.31,-0.19,-0.44,3,1
1772051528.320904,205396,0.04,-0.04,-0.10,-103.25,-78.62,63.69,0.56,-0.19,-0.31,0.05,-0.03,0.06,-139.94,42.56,200.56,-0.19,-0.06,-0.37,3,1
1772051528.511420,205587,0.03,0.09,-0.08,-103.37,-78.69,63.56,-1.75,1.31,-0.13,0.07,-0.06,0.10,-140.00,42.44,200.69,1.50,-1.19,-1.06,3,1
1772051528.702394,205778,-0.01,0.15,-0.03,-103.37,-78.75,63.44,-0.06,-1.00,-0.56,-0.03,-0.06,0.00,-140.19,42.31,200.62,-0.31,-0.75,-0.06,3,1
1772051528.892599,205968,-0.07,0.03,-0.05,-103.06,-78.87,63.81,-0.94,-1.12,-0.62,0.00,-0.07,0.00,-140.25,42.25,200.62,0.44,-0.06,0.31,3,1
1772051529.082903,206159,0.08,0.00,-0.14,-103.62,-78.87,64.00,0.69,2.00,1.37,0.00,-0.03,0.08,-140.25,42.31,200.62,-0.50,0.13,1.19,4,1
1772051529.273574,206349,-0.02,0.03,-0.06,-103.56,-78.81,64.19,1.56,1.25,0.00,0.05,-0.04,0.12,-140.25,42.44,200.50,0.06,0.44,0.88,4,1
1772051529.464304,206540,0.06,0.10,-0.11,-104.25,-78.81,64.19,1.00,-0.13,-0.06,0.08,-0.06,0.07,-140.44,42.50,200.31,0.31,-0.25,0.44,4,1
1772051529.654681,206730,0.04,0.02,-0.12,-104.37,-78.81,64.31,0.37,0.37,-0.37,0.03,-0.06,0.08,-140.44,42.56,200.31,0.31,0.13,0.00,3,1
1772051529.845525,206921,0.00,0.05,-0.10,-104.44,-78.81,64.25,-1.06,0.56,0.62,0.08,-0.04,0.05,-140.44,42.56,200.31,0.31,0.37,-0.19,3,1
1772051530.036277,207112,0.08,0.00,-0.14,-104.50,-78.75,64.25,0.31,0.19,-0.06,0.05,0.01,0.11,-140.37,42.50,200.37,0.06,-0.25,-0.13,3,1
1772051530.227121,207302,-0.01,0.02,-0.16,-102.75,-78.81,64.19,-2.25,-2.69,0.37,0.06,-0.03,0.08,-140.31,42.44,200.50,0.56,-0.13,-0.69,3,1
1772051530.417892,207493,-0.05,0.07,-0.08,-100.06,-79.00,64.06,-0.44,-1.19,-0.94,0.03,-0.02,0.05,-140.31,42.38,200.50,0.56,-0.06,-0.50,3,1
1772051530.607506,207683,-0.25,-0.10,-0.15,-99.75,-79.06,64.06,-1.12,0.62,3.00,0.33,-0.04,0.12,-139.87,42.38,201.25,-2.62,-0.44,-1.06,2,2
1772051530.797118,207872,-0.03,0.17,-0.05,-99.75,-78.94,63.56,-5.75,-2.87,-3.81,-0.03,-0.03,0.09,-140.06,42.13,200.87,3.94,-0.06,-2.00,3,2
1772051530.989116,208065,0.02,-0.08,-0.10,-99.75,-79.44,64.12,5.00,0.06,-1.19,0.06,0.00,0.11,-140.31,42.06,200.62,-1.44,1.31,2.69,2,1
1772051531.180123,208256,-0.07,0.17,-0.07,-100.94,-79.25,64.50,0.69,2.44,1.25,0.09,-0.04,0.07,-140.44,42.38,200.44,-0.37,-0.19,2.12,2,2
1772051531.370780,208446,0.07,0.01,-0.20,-104.81,-79.19,65.06,2.19,1.69,-1.81,0.06,-0.01,0.09,-140.62,42.44,200.25,0.50,-0.06,0.56,2,1
1772051531.561649,208637,0.10,0.01,-0.12,-105.81,-79.12,65.19,-0.69,1.50,1.94,0.01,0.00,0.05,-140.56,42.50,200.25,-0.25,-0.25,0.50,2,1
1772051531.752109,208828,-0.01,0.05,-0.10,-106.12,-78.94,65.00,0.13,0.44,0.88,0.00,0.05,0.13,-140.56,42.50,200.31,-0.06,0.00,0.31,3,1
1772051531.942891,209019,0.02,0.11,-0.08,-106.12,-78.75,64.56,-1.87,1.12,1.56,0.01,-0.02,0.06,-140.62,42.56,200.12,0.19,0.25,0.69,3,1
1772051532.133805,209210,0.02,0.01,-0.14,-106.25,-78.56,64.31,-0.13,-0.50,-0.25,0.06,0.01,0.08,-140.62,42.56,200.12,0.06,0.19,0.06,3,1
1772051532.324538,209400,0.00,0.02,-0.10,-105.06,-78.62,64.25,-2.62,-2.75,0.25,0.03,0.02,0.06,-140.62,42.56,200.06,0.19,0.37,-0.06,3,1
1772051532.514915,209591,0.01,0.00,0.00,-103.44,-78.75,64.19,0.37,0.37,-0.69,0.04,0.04,0.13,-140.62,42.56,200.12,-0.44,-0.44,0.50,3,1
1772051532.705874,209782,0.00,0.09,-0.07,-104.25,-78.69,64.19,0.56,2.06,-0.06,0.09,-0.02,0.10,-140.62,42.56,200.12,0.13,-0.31,0.31,2,1
1772051532.896707,209972,0.02,-0.03,-0.13,-106.75,-78.62,64.37,0.94,1.75,0.06,0.08,-0.01,0.12,-140.62,42.50,200.19,0.13,-0.88,0.31,3,1
1772051533.087535,210163,-0.04,-0.01,-0.12,-107.50,-78.62,64.44,2.31,-0.44,-0.37,0.05,0.03,0.12,-140.62,42.44,200.37,0.06,-0.19,-0.13,4,2
1772051533.277919,210354,-0.11,0.14,-0.06,-107.31,-78.62,64.44,0.69,-0.06,0.06,0.03,0.02,0.09,-140.62,42.44,200.37,-0.75,-0.37,0.25,4,2
1772051533.468590,210544,0.05,-0.02,-0.05,-109.19,-78.56,64.62,0.75,1.87,-0.75,0.06,0.04,0.13,-140.62,42.50,200.44,-0.56,-0.44,0.44,4,2
1772051533.659333,210735,-0.08,0.06,-0.09,-108.25,-78.62,64.50,0.25,1.06,-0.13,0.03,-0.02,0.14,-140.62,42.44,200.44,0.25,-0.50,0.00,4,2
1772051533.850090,210926,0.01,-0.01,-0.10,-109.06,-78.56,64.50,-0.06,0.06,0.56,0.05,0.01,0.12,-140.62,42.44,200.44,-0.13,0.00,0.00,4,2
1772051534.040709,211116,0.29,-0.11,-0.22,-107.69,-78.44,64.06,-3.56,-4.31,1.00,0.10,0.00,0.10,-140.56,42.38,200.50,0.31,-0.31,-1.06,5,2
1772051534.231545,211307,-0.02,0.03,0.01,-102.19,-78.56,63.50,0.88,-3.25,-0.44,-0.01,0.06,0.13,-140.44,42.31,200.69,-0.06,-0.19,-0.25,5,3
1772051534.422255,211498,-0.04,0.06,-0.02,-100.56,-78.62,63.50,-0.50,-1.25,0.13,0.08,-0.01,0.12,-140.50,42.31,200.75,-0.25,-0.62,0.56,4,2
1772051534.612314,211688,0.03,0.02,-0.06,-101.12,-78.81,63.75,1.31,0.94,-0.81,0.02,0.00,0.11,-140.56,42.25,200.87,0.00,-0.13,0.75,4,2
1772051534.803385,211879,-0.05,0.00,-0.04,-102.06,-78.87,64.06,1.69,1.62,0.44,0.04,-0.03,0.08,-140.62,42.25,200.75,-0.69,-0.06,1.06,4,2
1772051534.994027,212070,-0.04,0.09,-0.13,-104.00,-78.56,63.94,-0.62,1.19,2.12,0.05,-0.02,0.08,-140.62,42.31,200.81,0.50,-0.06,0.62,3,1
1772051535.184640,212260,-0.06,0.06,-0.02,-104.06,-78.56,63.88,0.37,-0.50,0.44,0.05,0.00,0.12,-140.75,42.31,200.75,-0.13,-1.19,0.37,3,1
1772051535.375391,212451,-0.02,-0.02,-0.09,-105.06,-78.62,64.06,0.75,1.25,-0.56,0.04,0.00,0.11,-140.81,42.25,200.87,-0.19,-1.00,0.13,3,1
1772051535.565975,212642,-0.03,-0.01,-0.06,-105.56,-78.69,64.19,0.75,0.94,-0.31,0.06,0.03,0.17,-140.81,42.19,200.94,0.06,0.00,-0.31,3,1
1772051535.756874,212833,-0.05,0.09,-0.05,-105.50,-78.62,64.06,-0.50,-0.62,0.94,0.06,0.02,0.14,-140.81,42.19,200.94,0.13,0.13,-0.25,3,1
1772051535.947423,213023,0.00,0.08,-0.07,-104.75,-78.62,63.94,-1.44,-0.94,0.37,0.10,0.00,0.14,-140.81,42.19,200.94,-0.06,-0.31,0.00,3,1
1772051536.137960,213214,0.00,0.01,-0.04,-104.31,-78.62,63.88,0.06,-0.31,0.00,0.04,0.03,0.12,-140.81,42.19,200.94,-0.06,-0.37,-0.06,3,1
1772051536.328865,213404,0.02,0.00,-0.07,-102.69,-78.69,63.75,-3.62,-3.19,0.25,0.09,-0.01,0.12,-140.75,42.13,201.06,0.25,-0.19,-0.75,4,2
1772051536.519536,213595,0.01,0.08,0.01,-100.37,-78.81,63.44,0.62,-0.69,0.00,0.04,0.04,0.13,-140.75,42.13,201.06,-0.19,-0.56,-0.19,4,3
1772051536.710430,213786,-0.01,-0.04,-0.02,-101.44,-78.75,63.63,1.50,3.00,0.19,0.08,0.02,0.13,-140.69,42.13,201.19,-1.31,-0.88,1.19,4,3
1772051536.900577,213977,0.05,-0.02,-0.15,-104.44,-78.62,63.75,3.12,2.69,-0.44,0.05,0.01,0.14,-140.56,42.19,201.50,0.44,0.56,0.00,4,2
1772051537.091555,214167,-0.03,0.03,-0.08,-104.56,-78.50,63.75,-2.19,-1.75,1.75,0.08,0.00,0.14,-140.44,42.25,201.50,1.25,0.13,-0.25,4,3
1772051537.281143,214357,-0.01,0.06,-0.01,-103.44,-78.44,63.44,1.37,-1.19,-0.44,0.09,0.00,0.16,-140.44,42.31,201.37,1.31,-0.62,0.56,4,3
1772051537.472448,214548,0.01,0.07,-0.11,-103.75,-78.56,63.69,1.06,-0.50,-0.69,0.07,0.02,0.12,-140.56,42.25,201.44,0.13,-0.37,0.62,4,3
1772051537.663543,214739,-0.01,0.09,-0.08,-103.44,-78.69,63.81,0.06,-0.13,0.00,0.05,0.01,0.11,-140.56,42.31,201.37,-0.13,0.13,0.31,4,3
1772051537.854340,214930,0.01,0.07,-0.06,-103.25,-78.69,63.75,-0.37,-0.62,0.19,0.05,-0.01,0.10,-140.50,42.38,201.31,-0.37,-0.13,0.31,4,3
1772051538.045061,215121,0.00,0.05,-0.04,-102.37,-78.69,63.75,-1.56,-0.62,0.50,0.02,0.00,0.11,-140.50,42.44,201.31,-0.19,-0.13,-0.13,4,3
1772051538.235760,215311,0.10,-0.07,-0.08,-101.31,-78.75,63.69,-1.81,-2.94,-0.25,0.08,0.03,0.11,-140.37,42.31,201.50,0.00,-0.69,-1.50,3,2
1772051538.426177,215502,-0.05,0.14,0.04,-97.06,-78.87,63.13,-1.00,-1.62,0.13,0.05,0.02,0.16,-140.25,42.19,201.69,-0.19,-0.75,0.06,3,2
1772051538.617166,215693,-0.39,0.00,-0.14,-98.56,-78.81,63.13,0.69,2.19,2.44,0.11,-0.11,0.02,-139.87,42.19,202.25,-2.12,-1.00,-0.19,4,2
1772051538.807457,215883,0.13,-0.06,0.00,-102.25,-78.31,63.13,7.31,-0.25,1.12,0.00,0.05,0.14,-139.69,42.38,202.44,-0.69,-0.75,0.00,4,2
1772051538.998278,216074,-0.02,0.00,-0.02,-101.94,-78.31,63.31,0.37,-1.75,-1.56,0.03,0.04,0.13,-139.75,42.25,202.50,2.87,1.06,-0.75,4,2
1772051539.187609,216264,0.00,0.15,0.00,-101.50,-78.56,63.00,-0.94,2.44,0.69,0.05,-0.01,0.08,-140.31,42.31,201.62,0.13,-1.12,1.87,4,2
1772051539.378868,216455,0.04,-0.05,-0.18,-104.37,-78.50,63.31,1.69,3.25,-1.37,0.03,0.00,0.08,-140.44,42.44,201.37,0.88,-0.50,0.62,3,2
1772051539.570347,216646,0.05,-0.07,-0.13,-105.12,-78.56,63.44,0.25,-3.00,0.00,0.04,-0.02,0.10,-140.44,42.44,201.31,-0.19,-0.31,0.50,4,2
1772051539.760935,216837,0.05,0.00,-0.08,-101.94,-78.62,63.19,-1.56,-4.19,0.31,0.02,0.00,0.08,-140.37,42.38,201.50,-0.31,-0.62,-0.88,3,1
1772051539.951607,217027,-0.06,0.15,0.10,-97.25,-78.75,62.69,-2.62,-2.94,-0.25,0.06,0.00,0.18,-140.31,42.31,201.94,-2.25,-1.06,1.06,3,1
1772051540.141116,217217,-0.11,0.11,-0.06,-98.37,-78.62,62.56,0.06,2.06,0.50,0.05,0.02,0.13,-139.94,42.38,202.50,-1.81,-0.25,0.69,3,1
1772051540.331310,217407,0.00,0.09,0.03,-99.44,-78.44,62.50,-1.00,0.44,0.19,-0.02,0.05,0.10,-139.94,42.44,202.50,1.75,0.81,-0.69,4,1
1772051540.523118,217599,-0.01,0.03,-0.04,-99.75,-78.44,62.50,-1.37,1.50,0.62,0.07,0.00,0.13,-140.12,42.50,202.00,0.69,0.06,0.44,3,1
1772051540.713961,217790,0.09,0.10,-0.20,-100.12,-78.37,62.19,-1.31,0.00,0.62,0.05,0.01,0.14,-140.19,42.50,202.00,1.00,0.31,-0.37,3,1
1772051540.904886,217981,-0.07,0.14,0.06,-96.44,-78.50,61.94,-1.81,-3.69,-0.44,0.02,0.00,0.11,-140.12,42.25,202.25,0.69,-0.94,-0.81,3,0
1772051541.095406,218171,-0.10,0.03,-0.02,-96.87,-78.69,62.25,2.94,2.69,-0.13,0.03,0.06,0.18,-140.19,42.19,202.37,0.94,0.19,0.25,3,1
1772051541.285081,218361,0.15,0.15,-0.16,-100.31,-78.44,62.38,1.62,3.75,1.37,0.05,-0.01,0.10,-140.25,42.25,202.31,-1.69,-1.19,0.94,3,1
1772051541.477037,218553,-0.18,-0.01,-0.01,-100.81,-78.62,62.88,0.06,-1.56,-0.56,0.02,0.00,0.05,-140.19,42.25,202.56,1.37,-0.37,-0.25,2,1
1772051541.667469,218743,-0.04,0.21,-0.02,-100.12,-78.75,62.69,-2.19,0.06,1.56,0.06,0.06,0.15,-140.37,42.38,202.00,-1.25,-1.00,0.44,2,1
1772051541.858552,218934,0.09,0.01,-0.07,-99.81,-78.75,62.56,-3.12,-1.50,-0.81,-0.03,0.03,0.09,-140.37,42.38,201.75,1.31,0.00,-1.00,2,1
1772051542.048862,219125,-0.11,0.05,0.06,-97.19,-79.00,62.69,1.81,0.81,-0.56,0.04,0.05,0.13,-140.37,42.38,201.69,-0.06,-0.06,0.31,3,1
1772051542.239262,219316,0.03,0.04,-0.01,-100.12,-78.94,62.88,1.75,2.81,0.75,0.03,0.04,0.15,-140.37,42.44,201.69,-0.13,0.13,0.50,2,1
1772051542.430608,219506,0.15,0.10,-0.03,-101.94,-78.69,62.75,-0.13,-0.81,-0.50,0.10,-0.02,0.13,-140.44,42.38,201.75,-0.25,-0.44,0.56,2,1
1772051542.620781,219697,0.02,0.13,-0.04,-101.69,-78.69,62.81,0.44,0.00,-0.44,0.07,0.02,0.15,-140.56,42.38,201.81,-0.44,0.25,1.19,2,1
1772051542.811430,219888,0.03,0.05,-0.07,-102.31,-78.69,62.94,-0.44,-0.25,0.37,0.08,0.00,0.10,-140.56,42.44,201.75,0.31,0.81,0.56,2,2
1772051543.002192,220078,0.03,0.10,-0.01,-101.87,-78.56,62.63,-1.00,0.69,1.31,0.04,0.02,0.12,-140.56,42.44,201.75,-0.19,0.13,0.56,3,2
1772051543.192171,220268,-0.01,-0.01,-0.05,-101.87,-78.50,62.56,-0.06,-0.13,-0.50,0.11,0.03,0.09,-140.56,42.44,201.81,-0.94,-1.31,0.44,3,2
1772051543.383895,220460,-0.01,0.01,-0.03,-100.25,-78.62,62.50,-2.50,-3.31,-0.69,0.10,0.00,0.10,-140.56,42.38,201.87,-0.06,-0.37,-0.19,3,2
1772051543.574274,220650,-0.08,0.09,0.03,-98.75,-78.75,62.50,2.56,1.12,-0.44,0.03,0.00,0.11,-140.56,42.31,202.06,-1.06,-0.94,-0.06,3,1
1772051543.764968,220841,0.00,-0.02,-0.05,-102.00,-78.75,63.00,2.75,2.25,0.19,0.15,-0.02,0.16,-140.56,42.38,202.12,-0.44,-0.62,0.94,3,2
1772051543.955901,221032,-0.05,0.04,-0.03,-103.12,-78.69,63.06,-0.88,-0.94,0.31,0.10,0.01,0.13,-140.62,42.38,202.12,-0.13,-0.69,-0.13,3,1
1772051544.146180,221222,-0.02,0.01,0.00,-103.00,-78.69,63.06,1.19,-1.94,-1.87,0.03,0.01,0.21,-140.69,42.31,202.19,0.13,0.06,0.37,3,1
1772051544.337034,221413,0.02,0.04,-0.05,-103.19,-78.69,63.06,0.13,1.00,0.56,0.09,0.00,0.12,-140.69,42.25,202.19,0.19,-0.25,-0.06,3,1
1772051544.527767,221604,0.01,0.03,-0.08,-103.50,-78.69,63.06,-0.06,-0.37,-0.25,0.11,0.01,0.14,-140.69,42.25,202.25,0.00,0.37,0.19,3,1
1772051544.718367,221795,0.00,0.09,-0.03,-103.19,-78.62,62.94,-1.00,0.37,0.69,0.06,0.01,0.14,-140.75,42.25,202.19,-0.13,-0.06,0.50,3,1
1772051544.909206,221985,0.01,-0.04,-0.13,-103.19,-78.62,62.94,0.06,-0.69,-0.31,0.12,0.00,0.18,-140.69,42.25,202.25,0.44,-0.13,-1.06,3,1
1772051545.099857,222176,0.00,0.04,-0.05,-99.25,-78.69,62.44,-3.69,-6.25,0.88,0.10,-0.01,0.15,-140.56,42.06,202.56,0.19,-0.19,-0.81,3,1
1772051545.290974,222367,-0.07,0.13,-0.02,-95.56,-78.75,62.19,-0.69,-0.56,0.00,0.05,0.02,0.15,-140.50,41.94,202.69,-0.06,-0.88,-0.81,3,1
1772051545.481237,222557,-0.04,0.00,-0.05,-96.12,-78.75,62.38,1.25,1.81,-0.44,0.04,0.01,0.16,-140.44,42.00,202.69,0.37,-0.88,0.50,3,1
1772051545.672097,222748,0.00,-0.02,-0.08,-97.94,-78.69,62.44,1.25,1.62,-0.94,0.10,-0.02,0.16,-140.44,42.19,202.56,0.25,-0.25,1.06,2,1
1772051545.862726,222939,-0.03,-0.04,-0.07,-98.81,-78.69,62.56,1.69,0.44,0.06,0.12,-0.05,0.16,-140.44,42.31,202.37,-0.13,-0.06,0.00,3,1
1772051546.053611,223129,0.02,0.01,-0.05,-99.19,-78.62,62.50,-0.06,-0.62,0.31,0.08,-0.01,0.15,-140.44,42.38,202.37,-0.13,-0.19,-0.50,3,1
1772051546.244372,223320,0.02,0.11,-0.07,-99.31,-78.56,62.44,-0.44,1.50,0.13,0.06,-0.01,0.10,-140.37,42.38,202.37,-0.25,-0.25,-0.25,3,1
1772051546.434839,223511,0.02,0.07,-0.08,-99.69,-78.56,62.38,0.13,0.19,-0.44,0.07,-0.01,0.12,-140.31,42.38,202.37,0.00,-0.13,-0.50,2,1
1772051546.625663,223701,0.06,0.02,-0.15,-99.37,-78.56,62.38,-1.81,-1.50,0.19,0.06,0.00,0.08,-140.31,42.38,202.44,-0.25,-0.44,-0.88,2,1
1772051546.816206,223892,0.01,0.08,-0.03,-96.44,-78.62,62.13,-1.56,-2.31,-0.13,0.02,0.03,0.09,-140.19,42.25,202.69,-0.31,0.31,-0.37,2,1
1772051547.005663,224082,-0.14,0.07,-0.02,-95.37,-78.75,62.25,-0.37,1.44,0.37,0.08,0.06,0.17,-140.00,42.31,202.87,0.81,2.00,-1.69,2,2
1772051547.197217,224273,0.06,-0.03,-0.15,-97.62,-78.62,62.13,2.62,2.31,1.06,0.04,0.01,0.12,-140.00,42.38,202.56,0.69,0.56,0.56,2,1
1772051547.388054,224464,0.00,0.03,-0.11,-98.06,-78.56,62.19,0.50,-1.37,-1.12,0.07,0.00,0.09,-140.12,42.38,202.50,0.94,-0.13,0.50,2,2
1772051547.578971,224655,-0.06,0.03,-0.11,-99.06,-78.81,62.63,1.37,2.00,-0.13,0.04,0.01,0.14,-140.25,42.44,202.37,-0.31,-0.31,0.69,2,1
1772051547.769478,224846,0.02,0.07,-0.12,-100.56,-78.75,62.63,0.50,1.69,1.25,0.08,0.03,0.14,-140.25,42.44,202.37,-0.13,-0.13,0.62,2,1
1772051547.960203,225036,0.00,0.10,-0.14,-101.19,-78.69,62.63,-0.44,0.81,0.44,0.08,-0.01,0.12,-140.31,42.44,202.31,0.19,-0.19,0.31,2,1
1772051548.150988,225227,0.00,0.00,-0.09,-101.25,-78.75,62.63,0.00,-0.31,0.00,0.04,-0.01,0.11,-140.31,42.44,202.31,0.06,0.00,-0.13,2,1
1772051548.341895,225418,0.06,-0.01,-0.21,-100.31,-78.75,62.56,-2.94,-2.44,0.75,0.07,0.01,0.09,-140.25,42.44,202.31,-0.13,0.06,-0.81,2,1
1772051548.532463,225608,0.00,0.09,-0.04,-97.25,-78.69,62.13,0.13,-2.44,-0.19,0.01,0.00,0.09,-140.19,42.44,202.37,-0.37,0.31,0.25,2,1
1772051548.723289,225799,-0.05,0.04,-0.02,-96.56,-78.75,62.38,1.81,-0.19,-0.56,0.04,-0.01,0.17,-140.19,42.50,202.44,-0.19,0.19,0.56,3,1
1772051548.913643,225990,0.04,-0.01,-0.12,-98.81,-78.75,62.69,2.56,2.19,0.19,0.05,0.02,0.14,-140.19,42.50,202.44,0.06,0.75,0.31,2,1
1772051549.104487,226181,0.02,0.02,-0.07,-99.56,-78.69,62.81,0.75,0.81,-0.19,0.06,0.00,0.13,-140.25,42.56,202.31,-0.19,0.50,0.75,3,1
1772051549.294920,226371,0.00,0.05,-0.10,-100.62,-78.50,62.69,0.06,1.87,1.62,0.05,0.00,0.12,-140.31,42.63,202.25,0.31,0.62,0.31,3,1
1772051549.485969,226562,0.03,-0.01,-0.11,-101.00,-78.37,62.56,-0.31,-0.44,0.56,0.06,-0.01,0.11,-140.31,42.69,202.12,0.62,-0.25,0.06,3,1
1772051549.676765,226753,-0.01,-0.01,-0.04,-100.25,-78.50,62.56,1.75,0.25,-0.88,0.04,0.04,0.15,-140.31,42.69,202.12,0.56,-0.69,0.25,3,1
1772051549.867150,226943,0.00,0.08,-0.09,-100.87,-78.44,62.50,-0.44,1.31,0.00,0.02,0.01,0.09,-140.31,42.75,202.06,0.88,-0.62,-0.37,3,1
1772051550.058418,227134,0.01,-0.07,-0.17,-100.75,-78.56,62.63,-0.62,-2.31,-0.31,0.05,0.00,0.12,-140.25,42.75,202.06,0.44,-0.44,-0.81,3,1
1772051550.248828,227325,-0.03,0.11,0.00,-97.87,-78.62,62.25,-0.13,-1.50,-0.06,0.00,0.08,0.12,-140.19,42.75,202.12,-1.25,0.19,-0.31,3,1
1772051550.439499,227515,0.00,0.10,-0.10,-97.87,-78.56,62.06,1.00,1.44,-0.13,-0.02,-0.13,0.11,-140.00,42.75,202.37,-2.75,-0.88,-0.06,3,1
1772051550.630221,227706,0.01,0.10,-0.07,-99.12,-78.44,62.13,-1.12,-1.62,0.00,0.00,0.02,0.05,-139.81,42.69,202.62,-0.44,-0.62,-0.75,3,1
1772051550.819691,227896,-0.03,-0.09,-0.01,-98.81,-78.37,62.38,2.75,-0.69,-0.06,0.04,0.01,0.08,-139.69,42.69,202.81,-0.94,-0.13,0.56,3,1
1772051551.011489,228087,-0.01,0.10,-0.08,-99.06,-78.06,62.06,-0.31,-0.06,0.31,-0.05,0.04,0.14,-139.75,42.75,202.75,-1.37,-1.31,1.06,3,1
1772051551.202272,228278,0.04,-0.06,-0.04,-99.06,-78.19,62.56,4.19,-1.62,-4.87,0.00,0.04,0.08,-139.62,42.56,203.56,-0.69,-0.13,-0.19,3,1
1772051551.392824,228469,0.08,-0.03,-0.02,-98.81,-78.62,62.94,-3.87,-1.19,0.19,0.00,-0.01,0.05,-139.87,42.63,203.06,4.94,2.37,0.50,3,1
1772051551.583462,228660,0.07,0.02,-0.11,-98.75,-78.37,62.25,0.88,2.19,-0.44,0.04,0.01,0.10,-140.25,42.69,202.62,1.19,-0.06,0.25,3,1
1772051551.774466,228850,0.01,-0.05,-0.07,-98.81,-78.56,62.44,-0.94,-4.00,-0.50,0.02,0.02,0.09,-140.31,42.75,202.44,0.44,0.37,-0.44,3,1
1772051551.965150,229041,0.04,0.08,0.02,-96.44,-78.56,62.25,0.44,1.12,-0.13,-0.01,0.07,0.08,-140.25,42.69,202.56,-1.12,-0.75,0.62,4,1
1772051552.155878,229232,-0.03,-0.03,-0.13,-98.44,-78.56,62.63,2.44,1.25,-0.19,-0.01,0.06,0.09,-140.06,42.69,202.94,0.50,0.44,-0.31,3,1
1772051552.345891,229422,0.00,0.03,0.00,-99.37,-78.56,62.94,2.19,0.19,1.06,0.01,0.02,0.08,-140.06,42.69,203.00,0.75,0.00,0.50,4,1
1772051552.536302,229612,-0.04,-0.07,-0.05,-99.94,-78.62,63.06,-2.50,-0.06,-0.19,-0.03,0.04,0.09,-140.06,42.63,202.87,-1.44,-0.62,-0.44,3,2
1772051552.725572,229802,-0.08,0.16,0.03,-99.12,-78.62,62.50,-5.94,3.87,0.06,0.02,-0.02,0.01,-140.31,42.75,202.19,-1.75,-2.50,0.25,3,2
1772051552.917880,229994,-0.07,-0.05,-0.04,-101.12,-78.44,62.44,-2.94,0.69,-0.62,0.00,0.06,0.09,-140.31,42.81,202.19,0.69,-0.44,0.50,4,2
1772051553.109291,230185,0.02,-0.06,-0.06,-101.81,-78.50,62.44,1.25,0.69,-0.81,-0.01,0.04,0.08,-140.31,42.81,202.12,-0.19,-0.31,0.31,3,2
1772051553.299645,230376,0.05,-0.07,-0.15,-101.94,-78.50,62.44,-1.62,-0.81,0.44,0.00,0.04,0.09,-140.25,42.81,202.12,0.25,0.37,-0.37,4,3
1772051553.490505,230567,-0.02,0.04,0.05,-98.81,-78.56,62.13,0.44,-2.56,-0.37,-0.02,0.06,0.04,-140.19,42.81,202.19,-1.56,-0.62,0.00,4,3
1772051553.681120,230757,-0.07,0.02,0.00,-98.19,-78.62,62.13,-0.69,0.50,0.25,0.02,0.02,0.07,-139.94,42.81,202.44,-0.56,-0.69,-0.69,4,3
1772051553.871947,230948,0.04,-0.09,-0.09,-99.87,-78.56,62.25,2.81,1.00,0.31,-0.02,0.08,0.09,-139.69,42.81,202.94,-0.50,0.44,0.06,4,3
1772051554.062405,231139,-0.03,0.00,0.01,-99.56,-78.37,62.13,-0.13,-2.12,0.62,0.00,0.02,0.09,-139.69,42.81,202.81,0.31,0.06,0.81,4,3
1772051554.253108,231329,0.03,0.16,-0.07,-99.19,-78.19,61.88,-1.00,0.37,0.75,-0.15,0.17,0.15,-139.69,42.81,203.06,1.12,0.62,-0.37,4,2
1772051554.442968,231519,-0.07,0.32,0.02,-98.19,-78.44,61.94,-0.06,3.06,-1.06,-0.01,-0.03,0.04,-140.12,42.81,202.44,-0.19,-1.69,0.56,4,2
1772051554.633769,231710,0.01,0.00,0.00,-100.19,-78.56,62.50,-2.19,-0.81,0.75,-0.02,0.03,0.00,-140.31,42.88,202.19,1.06,-0.13,0.37,4,2
1772051554.825005,231901,0.00,-0.09,-0.03,-99.69,-78.69,62.56,0.81,-1.62,-0.88,0.01,0.02,0.09,-140.37,42.88,202.12,0.44,0.25,0.19,3,2
1772051555.015817,232092,0.03,0.03,-0.02,-98.62,-78.69,62.38,-1.19,0.06,0.50,-0.03,0.05,0.07,-140.31,42.94,202.12,-0.13,0.06,-0.37,4,2
1772051555.206617,232283,-0.05,0.03,-0.07,-97.94,-78.69,62.38,-0.88,-0.75,0.37,-0.02,0.06,0.05,-140.19,42.88,202.31,-0.06,0.13,-0.44,3,1
1772051555.396033,232472,0.03,0.06,0.02,-95.94,-78.69,62.00,-2.37,-2.94,-0.13,-0.01,-0.05,0.00,-140.00,42.88,202.69,-3.25,-0.75,1.12,3,1
1772051555.587073,232663,-0.02,-0.10,0.05,-95.69,-78.75,62.19,-0.25,0.25,-0.69,-0.10,0.13,0.10,-139.81,42.88,202.75,1.06,0.62,-0.81,3,1
1772051555.778292,232855,-0.04,0.12,0.00,-96.94,-78.56,61.75,0.94,5.00,1.12,0.05,0.05,0.12,-139.87,42.88,202.50,-0.25,-0.75,0.75,3,1
1772051555.969131,233045,0.07,0.07,-0.04,-99.50,-78.31,61.56,-1.06,-1.12,-1.50,-0.02,0.04,0.04,-139.94,42.94,202.37,0.50,0.06,0.50,3,1
1772051556.160060,233236,-0.04,-0.02,-0.01,-99.37,-78.44,61.88,1.81,1.25,-0.44,-0.06,0.06,0.09,-140.00,42.94,202.31,0.31,-0.56,0.13,3,1
1772051556.350605,233427,0.03,0.02,-0.05,-100.50,-78.44,61.81,-0.13,0.75,0.00,-0.01,0.01,0.05,-140.06,42.94,202.25,0.25,-0.31,-0.13,3,1
1772051556.541317,233617,0.04,0.00,-0.02,-100.12,-78.50,61.88,-0.81,-1.31,0.31,-0.01,0.02,0.06,-140.06,42.94,202.25,-0.62,-0.44,0.31,2,2
1772051556.732324,233808,-0.01,0.02,0.01,-98.75,-78.56,61.88,0.56,-0.69,-0.88,-0.03,0.07,0.03,-140.00,42.94,202.31,-0.81,-0.88,0.00,3,2
1772051556.922766,233999,-0.12,0.04,0.01,-96.00,-78.62,61.81,-2.87,-2.31,0.00,-0.04,0.06,0.05,-140.00,42.94,202.31,-0.13,-0.81,0.37,3,2
1772051557.113156,234190,-0.03,0.00,0.00,-95.87,-78.69,61.88,1.44,0.37,-0.94,-0.02,0.04,0.06,-140.06,42.88,202.37,1.31,-0.69,0.00,3,2
1772051557.304085,234380,-0.04,0.04,-0.02,-97.81,-78.75,61.94,0.62,3.19,0.81,-0.18,0.04,-0.14,-140.31,42.81,202.19,-0.88,-0.81,0.81,3,1
1772051557.494875,234571,-0.13,-0.08,0.01,-98.50,-78.69,62.06,1.50,0.00,0.56,-0.06,0.06,0.01,-140.37,43.00,202.06,-0.75,-0.50,1.12,3,2
1772051557.685653,234762,-0.01,-0.11,-0.04,-98.81,-78.62,62.25,1.62,0.56,-0.19,0.00,0.08,0.06,-140.37,43.13,202.00,-0.56,-0.31,0.69,3,2
1772051557.876532,234952,-0.03,0.02,-0.03,-98.75,-78.56,62.06,0.19,-0.94,-0.69,-0.02,0.04,0.04,-140.31,43.13,202.00,-0.06,-0.37,-0.75,3,2
1772051558.066967,235143,-0.03,0.03,0.01,-97.06,-78.75,62.06,0.81,-2.12,-0.81,-0.04,0.07,0.04,-140.31,43.06,202.06,-0.25,-0.13,-0.06,4,2
1772051558.257335,235334,0.00,-0.01,-0.03,-97.19,-78.81,62.25,1.12,0.81,0.00,0.00,0.02,0.03,-140.25,43.06,202.19,-1.50,0.31,0.06,4,2
1772051558.447018,235523,-0.02,0.05,-0.13,-97.75,-78.69,62.13,-1.62,0.81,1.75,0.02,0.11,0.04,-139.87,43.06,202.69,-1.06,1.50,-1.75,4,1
1772051558.638560,235715,0.00,0.16,-0.02,-96.56,-78.19,61.50,-1.37,-1.25,2.37,-0.12,0.12,0.07,-139.50,43.19,202.69,0.19,0.44,0.31,3,1
1772051558.829413,235906,0.01,-0.03,-0.06,-96.19,-78.12,61.63,1.56,0.75,0.44,-0.08,0.16,0.15,-139.37,43.13,203.00,1.62,1.31,-0.25,3,1
1772051559.020228,236096,0.04,0.19,-0.05,-96.56,-78.06,61.25,1.06,2.19,-0.37,-0.07,0.03,0.09,-139.50,43.19,202.56,1.19,1.56,-0.19,3,2
1772051559.210751,236287,0.09,0.11,-0.07,-97.50,-78.06,61.19,-1.69,1.06,1.56,-0.02,0.08,0.15,-139.62,43.31,202.37,1.12,0.69,-0.06,2,1
1772051559.401577,236478,0.01,0.12,-0.05,-97.50,-78.06,61.13,-0.06,1.31,-0.69,-0.03,0.04,0.07,-139.69,43.25,202.37,0.00,-0.37,0.94,2,1
1772051559.592451,236669,0.06,-0.05,-0.11,-97.75,-78.25,61.50,-0.44,-2.12,-0.37,-0.07,0.08,0.05,-139.69,43.25,202.37,0.75,1.00,0.44,2,1
1772051559.782967,236859,-0.10,0.16,0.02,-93.44,-78.31,61.13,-1.81,-2.62,0.31,-0.08,0.11,0.04,-139.62,43.31,202.31,0.06,-0.31,0.06,2,1
1772051559.973597,237050,-0.03,0.01,-0.02,-93.37,-78.37,61.38,0.56,0.00,-0.56,-0.07,0.03,0.01,-139.56,43.31,202.37,0.50,0.25,0.44,2,1
1772051560.164083,237241,0.05,0.05,-0.03,-94.12,-78.37,61.31,0.44,1.50,0.19,-0.04,0.05,0.08,-139.56,43.31,202.37,0.37,0.37,0.69,2,0
1772051560.355041,237431,-0.03,0.06,-0.02,-95.31,-78.37,61.38,0.00,1.12,0.25,-0.07,0.04,0.06,-139.62,43.38,202.31,-0.19,-0.25,0.37,2,1
1772051560.546023,237622,-0.02,0.04,-0.03,-95.81,-78.37,61.38,-0.37,1.19,0.25,-0.01,-0.03,0.08,-139.56,43.38,202.50,-2.37,0.19,-0.81,2,0
1772051560.736224,237813,0.11,-0.09,-0.16,-97.50,-78.12,61.31,1.44,0.19,1.81,-0.04,0.07,0.01,-139.00,43.31,203.06,1.19,1.06,-0.94,2,1
1772051560.927243,238003,-0.05,0.12,0.11,-94.94,-78.00,61.06,-1.44,-4.94,0.88,-0.02,0.05,0.13,-139.00,43.31,202.94,-0.31,-0.50,0.44,2,1
1772051561.117520,238194,0.01,0.17,-0.04,-96.12,-77.87,61.06,2.50,4.19,-0.25,-0.08,0.00,0.00,-139.12,43.19,203.12,0.62,-0.69,0.19,2,1
1772051561.308891,238385,-0.01,-0.17,-0.04,-98.44,-78.00,61.75,-0.75,-2.50,-0.81,-0.05,0.01,0.00,-139.25,43.25,203.06,-0.81,-0.75,-0.31,4,3
1772051561.499366,238576,-0.05,-0.15,-0.06,-97.62,-78.06,61.63,-0.94,0.81,-0.69,-0.13,0.20,0.09,-139.00,43.25,203.06,3.81,3.69,-0.31,4,3
1772051561.689604,238766,0.12,0.21,-0.13,-96.25,-77.75,60.56,-1.62,-0.50,1.87,0.00,0.09,0.10,-139.00,43.44,202.50,1.87,1.37,-0.69,4,3
1772051561.880607,238957,0.00,0.12,-0.02,-94.50,-77.87,60.25,-1.75,-0.81,-1.62,-0.06,0.05,0.01,-139.12,43.38,202.19,1.00,-0.69,-0.25,4,3
1772051562.071186,239147,-0.11,0.02,0.02,-94.87,-78.06,60.75,3.94,1.19,-0.88,-0.06,0.09,0.02,-139.25,43.31,202.31,-0.25,-0.06,1.00,4,3
1772051562.260602,239337,0.09,-0.08,-0.05,-98.19,-77.87,61.13,3.25,3.87,2.12,-0.02,0.09,0.08,-139.31,43.31,202.31,0.44,-1.31,0.31,4,3
1772051562.452227,239529,0.00,-0.12,-0.01,-98.94,-77.87,61.19,0.25,-0.37,-0.25,-0.06,0.05,0.00,-139.37,43.31,202.37,0.06,-0.37,0.31,4,3
1772051562.642991,239719,0.01,-0.08,-0.06,-98.12,-77.81,61.13,-1.44,-1.75,0.25,-0.07,0.06,0.00,-139.37,43.31,202.37,0.06,-0.25,0.44,4,3
1772051562.833897,239910,0.02,-0.02,-0.03,-96.00,-77.87,60.88,-1.37,-1.25,0.00,-0.04,0.07,0.07,-139.31,43.31,202.44,-0.25,0.56,0.50,4,2
1772051563.024642,240101,-0.09,0.15,0.00,-92.62,-78.00,60.25,-5.37,-2.81,-1.19,-0.02,0.00,0.05,-139.31,43.31,202.37,0.50,0.31,-1.19,5,2
1772051563.214937,240291,0.08,0.01,0.00,-92.62,-78.06,60.31,-0.13,-0.25,0.44,-0.13,0.05,0.04,-139.25,43.25,202.50,-0.13,-0.37,0.25,3,1
1772051563.406115,240482,-0.03,-0.09,-0.01,-93.56,-78.06,60.56,2.37,2.62,-0.44,-0.01,0.01,0.06,-139.19,43.25,202.50,-0.13,-0.31,0.69,3,1
1772051563.596458,240673,-0.04,0.08,-0.05,-96.94,-77.75,60.50,5.25,3.25,1.56,0.02,0.05,0.05,-139.19,43.25,202.56,-0.44,0.25,0.31,4,1
1772051563.787132,240864,-0.08,0.00,-0.07,-97.87,-77.62,60.63,-1.00,-1.31,-0.25,0.00,0.04,0.03,-139.25,43.25,202.56,0.19,0.31,0.31,4,1
1772051563.978157,241054,0.00,-0.04,-0.02,-97.37,-77.75,60.69,-0.81,-1.06,-0.69,-0.05,0.05,0.02,-139.25,43.25,202.56,0.37,0.50,-0.44,4,1
1772051564.168516,241245,0.00,0.02,-0.06,-96.37,-77.81,60.50,-1.31,-1.12,-1.00,-0.04,0.02,0.07,-139.31,43.25,202.56,0.00,-0.31,0.13,4,1
1772051564.359368,241436,-0.06,-0.04,0.02,-95.81,-78.00,60.75,0.75,-0.62,0.13,-0.03,0.03,0.04,-139.31,43.25,202.56,0.13,-0.50,0.13,4,1
1772051564.549903,241626,-0.02,-0.07,-0.02,-97.06,-78.06,60.94,2.12,2.25,-0.69,0.02,0.05,0.12,-139.25,43.31,202.50,0.25,0.06,0.31,4,2
1772051564.740626,241817,0.06,0.13,-0.08,-98.81,-77.81,60.63,0.06,0.13,-1.00,-0.02,0.03,0.05,-139.44,43.19,202.62,-0.81,0.00,0.44,5,2
1772051564.931299,242008,-0.03,0.11,0.01,-98.19,-78.00,60.88,-2.62,0.37,-0.62,-0.07,0.01,0.02,-139.44,43.19,202.56,0.06,0.44,0.50,4,1
1772051565.122075,242198,-0.01,0.00,-0.03,-98.31,-78.00,61.00,0.00,-0.25,0.13,-0.03,0.02,0.05,-139.50,43.19,202.56,-0.13,0.06,0.56,4,2
1772051565.312984,242389,0.04,0.02,-0.05,-97.81,-78.00,60.94,-0.13,-1.19,-0.06,-0.04,0.03,0.05,-139.50,43.19,202.56,0.06,0.19,0.31,4,1
1772051565.503645,242580,-0.01,-0.01,-0.03,-96.75,-78.06,61.06,0.75,-2.06,-0.69,-0.04,0.03,0.08,-139.50,43.19,202.56,0.50,0.44,0.69,3,1
1772051565.694024,242771,0.00,0.11,-0.03,-95.06,-78.06,60.94,-0.56,-2.06,0.06,0.00,0.00,0.03,-139.50,43.25,202.56,0.00,-0.19,0.06,2,1
1772051565.885052,242961,-0.01,0.01,-0.09,-93.31,-78.31,61.13,-0.31,-2.87,-1.06,-0.04,0.02,0.05,-139.50,43.25,202.62,-1.56,-0.06,-0.69,3,1
1772051566.075827,243152,-0.02,0.00,-0.04,-91.00,-78.44,61.06,-1.37,-1.25,-0.44,-0.09,0.05,0.03,-139.19,43.13,203.00,-0.88,-0.25,-0.88,3,1
1772051566.266357,243343,-0.02,0.10,-0.03,-90.19,-78.37,60.88,0.19,0.31,0.06,-0.10,0.10,0.11,-139.12,43.06,203.12,-0.13,-0.44,0.19,3,1
1772051566.456925,243533,-0.07,0.15,-0.06,-90.94,-78.37,61.06,2.50,2.06,-0.13,-0.04,0.02,0.06,-139.31,43.00,203.25,0.81,-1.31,0.75,4,1
1772051566.647541,243724,0.04,-0.01,-0.11,-93.94,-78.50,62.06,9.25,1.31,-0.13,-0.06,0.03,0.01,-139.44,42.81,203.44,0.50,0.25,0.00,3,1
1772051566.838200,243915,-0.03,-0.03,-0.03,-94.69,-78.69,63.06,-1.75,-0.37,-0.25,-0.01,0.03,0.02,-139.50,42.81,203.37,0.50,0.31,0.50,3,1
1772051567.029035,244105,-0.07,-0.06,-0.03,-94.56,-78.56,62.88,-0.50,0.31,0.69,-0.02,0.12,0.11,-139.37,42.88,203.37,1.00,0.81,-0.56,3,1
1772051567.219421,244296,0.10,0.05,-0.14,-95.56,-78.31,62.38,1.56,2.00,0.50,-0.06,0.10,0.09,-139.50,42.94,203.25,1.25,0.50,0.00,3,1
1772051567.410370,244487,-0.02,0.20,-0.02,-95.06,-78.25,62.31,2.50,-0.88,0.25,-0.12,0.10,0.06,-139.56,42.88,203.37,1.12,0.50,-1.50,3,1
1772051567.600876,244677,-0.06,0.10,-0.05,-95.00,-78.56,62.69,-0.94,1.06,2.37,0.00,0.01,0.00,-139.62,42.94,203.12,0.31,0.19,0.62,3,1
1772051567.791822,244868,0.03,0.05,-0.05,-96.00,-78.44,62.50,-1.12,0.25,1.62,-0.04,0.05,0.00,-139.62,42.94,203.19,-0.44,-0.31,-0.50,3,1
1772051567.982259,245059,-0.02,-0.10,0.01,-95.06,-78.44,62.56,-1.31,-1.44,-0.13,-0.01,0.10,0.05,-139.62,43.00,202.94,0.75,0.31,0.37,3,1
1772051568.173012,245250,0.02,-0.05,-0.09,-94.37,-78.37,62.13,-2.87,-1.87,0.56,0.01,0.00,0.08,-139.62,43.06,202.75,1.37,0.94,-0.50,3,2
1772051568.363546,245440,0.02,0.23,-0.04,-91.31,-78.25,61.00,-6.00,-0.25,2.00,-0.10,0.03,0.15,-139.69,43.13,202.69,0.13,0.81,0.56,2,2
1772051568.554468,245631,-0.07,0.01,0.03,-90.25,-78.25,60.75,0.06,-1.12,-0.94,-0.08,0.02,0.07,-139.62,43.13,202.75,-0.25,0.62,-0.50,3,2
1772051568.744779,245821,0.01,0.18,-0.02,-90.94,-78.50,60.50,-5.56,2.75,0.06,-0.02,0.09,0.04,-139.50,43.13,202.69,0.00,0.56,-0.81,3,2
1772051568.934379,246011,0.00,0.11,-0.02,-92.12,-78.12,60.19,1.00,1.12,0.94,-0.07,0.08,0.02,-139.62,43.25,202.37,0.06,-1.50,1.69,3,2
1772051569.125738,246202,-0.01,0.20,-0.06,-94.62,-78.12,60.75,9.69,3.56,-0.94,-0.07,0.08,0.03,-139.81,43.13,202.44,0.25,0.25,0.00,3,3
1772051569.317107,246393,-0.03,-0.17,-0.08,-96.69,-78.31,62.75,-0.81,-2.19,-1.69,0.02,0.03,0.07,-139.94,43.19,202.31,0.69,-0.44,-0.06,3,3
1772051569.507609,246584,-0.10,-0.04,0.01,-94.75,-78.37,62.69,-1.19,-2.94,0.94,-0.06,0.12,0.03,-139.81,43.25,202.25,1.06,1.06,-0.81,3,2
1772051569.698430,246775,-0.05,0.01,-0.02,-92.19,-78.25,62.13,-1.62,-3.12,-0.13,-0.03,0.09,0.09,-139.69,43.25,202.31,0.19,0.94,-1.00,3,3
1772051569.887982,246964,-0.11,0.11,0.03,-88.94,-78.50,61.31,-7.94,-1.62,-2.12,-0.06,0.06,0.00,-139.56,43.19,202.12,2.37,1.50,-1.75,3,2
1772051570.079159,247156,-0.08,0.11,0.07,-88.19,-78.50,60.75,-1.94,-0.13,2.44,-0.02,0.21,0.12,-139.37,43.25,202.00,0.75,0.69,0.00,3,2
1772051570.270197,247347,0.05,0.12,-0.04,-90.50,-78.12,60.25,1.37,2.69,-0.31,-0.09,0.10,0.07,-139.50,43.13,202.25,1.25,-1.62,1.19,3,2
1772051570.460900,247538,0.07,0.19,0.00,-94.12,-78.06,61.44,14.75,1.00,2.87,0.00,0.02,-0.01,-140.00,43.19,202.25,-2.87,-3.75,3.37,3,1
1772051570.650572,247727,0.00,-0.28,0.03,-94.75,-78.31,63.25,-0.06,-1.56,-4.69,0.00,-0.01,-0.01,-140.31,43.13,202.25,2.37,0.81,0.56,3,1
1772051570.839732,247916,0.14,-0.03,-0.13,-95.00,-78.62,63.38,1.25,0.56,-0.75,0.01,0.06,0.05,-140.31,43.19,202.25,-0.06,1.37,-0.75,2,1
1772051571.032170,248109,0.00,0.02,-0.03,-93.12,-78.69,63.13,-3.94,-3.12,1.50,-0.13,0.07,0.04,-140.00,43.19,202.06,0.00,1.62,-1.69,2,1
1772051571.223294,248300,0.06,0.15,0.02,-90.06,-78.37,62.25,-3.37,-1.37,3.87,-0.01,0.09,0.11,-139.69,43.25,202.12,-1.19,0.13,0.88,2,1
