host_time_s,t_ms,ax1,ay1,az1,roll1,pitch1,yaw1,gx1,gy1,gz1,ax2,ay2,az2,roll2,pitch2,yaw2,gx2,gy2,gz2,emg1,emg2
1772722065.423931,954279,-0.12,-0.10,0.19,-20.69,-68.62,244.06,-0.13,-0.56,-1.44,-0.14,-0.08,-0.19,149.75,-56.94,73.56,-1.62,-0.19,-1.00,3,3
1772722065.424619,954320,0.03,-0.20,0.06,-20.56,-68.69,244.12,-0.56,2.12,-0.37,-0.08,-0.05,-0.15,149.75,-56.94,73.50,-2.31,-0.62,-1.44,3,3
1772722065.425379,954359,0.02,-0.07,0.02,-20.62,-68.75,244.06,-2.12,2.50,1.00,-0.10,0.15,-0.10,149.75,-56.88,73.44,-1.69,-0.13,-1.19,3,3
1772722065.425983,954399,0.07,0.01,-0.05,-20.69,-68.81,243.94,-1.81,2.31,1.19,-0.09,0.13,-0.13,149.75,-56.88,73.44,0.13,0.19,-0.62,3,3
1772722065.426535,954440,0.04,0.10,0.00,-20.94,-68.87,243.81,0.00,1.19,2.00,-0.11,0.11,-0.08,149.69,-56.88,73.50,1.00,-0.25,0.37,3,3
1772722065.427091,954480,0.05,0.03,-0.07,-21.12,-68.87,243.75,0.69,1.00,0.75,-0.13,0.10,-0.10,149.69,-56.88,73.50,0.37,0.13,0.31,3,3
1772722065.427655,954520,0.04,-0.03,-0.10,-21.19,-68.87,243.75,-0.37,0.75,-0.44,-0.14,0.06,-0.13,149.69,-56.88,73.50,-0.56,0.06,-0.06,2,3
1772722065.428175,954561,0.09,0.00,-0.10,-21.19,-68.94,243.75,-0.56,-0.31,-0.25,-0.14,0.09,-0.14,149.69,-56.88,73.50,0.00,0.31,0.19,1,2
1772722065.428690,954600,0.10,0.03,-0.05,-21.19,-68.87,243.75,0.00,-1.56,-0.19,-0.10,0.06,-0.11,149.69,-56.88,73.50,0.13,-0.25,-0.13,2,1
1772722065.429341,954641,0.04,-0.13,-0.02,-21.12,-68.81,243.81,0.94,-2.69,0.19,-0.09,0.05,-0.11,149.62,-56.88,73.50,0.19,-0.44,-0.75,2,2
1772722065.429925,954681,0.03,-0.07,0.05,-21.06,-68.69,243.81,-0.31,-3.00,1.06,-0.10,0.07,-0.15,149.62,-56.88,73.56,0.31,0.06,-0.88,2,1
1772722065.430460,954721,-0.01,-0.03,0.06,-21.06,-68.56,243.75,-0.81,-2.31,1.44,-0.12,0.07,-0.16,149.56,-56.81,73.62,0.31,-0.06,-0.75,1,1
1772722065.430971,954761,0.05,0.00,0.07,-21.12,-68.50,243.69,-1.25,-1.94,1.62,-0.09,0.07,-0.14,149.50,-56.81,73.62,-0.25,0.00,-1.19,2,1
1772722065.431485,954801,0.02,0.03,0.06,-21.12,-68.37,243.56,-0.75,-1.31,1.62,-0.10,0.07,-0.11,149.44,-56.81,73.69,-0.37,-0.37,-1.25,2,1
1772722065.431995,954842,0.03,0.00,0.05,-21.25,-68.37,243.50,-0.62,-0.56,1.62,-0.10,0.08,-0.13,149.37,-56.75,73.75,0.37,-0.50,-0.94,2,1
1772722065.432500,954882,0.03,0.01,0.01,-21.44,-68.31,243.44,-0.62,0.13,1.87,-0.10,0.07,-0.14,149.31,-56.75,73.75,0.50,-0.31,-0.69,2,1
1772722065.432980,954922,0.05,0.03,0.02,-21.56,-68.31,243.37,-0.69,-0.44,2.00,-0.12,0.05,-0.11,149.31,-56.75,73.75,0.25,-0.25,-0.13,2,1
1772722065.433408,954962,0.00,0.04,0.05,-21.75,-68.25,243.25,-0.62,-0.06,1.56,-0.15,0.06,-0.07,149.31,-56.75,73.75,0.19,-0.88,0.00,2,1
1772722065.433846,955002,0.00,0.01,0.00,-21.87,-68.25,243.19,-1.00,0.75,1.06,-0.16,0.06,-0.10,149.31,-56.75,73.75,-0.13,-0.37,-0.31,2,1
1772722065.434279,955043,0.10,-0.01,-0.04,-21.94,-68.25,243.12,-1.37,1.19,1.06,-0.09,0.09,-0.17,149.31,-56.75,73.75,-0.13,0.62,-0.69,2,1
1772722065.434717,955083,0.13,0.05,-0.07,-22.00,-68.25,243.06,-1.37,-0.19,0.25,-0.13,0.03,-0.15,149.31,-56.75,73.75,-0.31,0.69,-0.56,2,1
1772722065.435047,955123,0.06,0.00,-0.01,-21.94,-68.25,243.00,-0.56,-2.25,0.50,-0.08,0.05,-0.15,149.25,-56.75,73.81,-0.37,-0.44,-0.75,2,1
1772722065.435322,955162,0.01,0.00,0.05,-21.87,-68.12,243.00,-0.13,-2.19,0.50,-0.09,0.10,-0.11,149.25,-56.75,73.81,-0.25,-0.50,-0.56,2,1
1772722065.435531,955203,0.03,0.00,0.05,-21.81,-68.06,243.00,-0.44,-1.12,0.31,-0.07,0.06,-0.14,149.25,-56.69,73.81,0.19,0.25,-0.69,2,1
1772722065.435725,955243,0.00,0.04,0.04,-21.75,-68.06,243.00,-0.19,-0.88,0.31,-0.14,0.04,-0.11,149.25,-56.69,73.87,0.19,0.06,-0.37,2,1
1772722065.436118,955283,0.00,0.01,0.07,-21.75,-68.00,243.00,0.50,-0.81,0.94,-0.12,0.04,-0.15,149.19,-56.69,73.87,0.50,0.00,-0.13,1,1
1772722065.436535,955323,0.03,0.00,0.03,-21.81,-68.00,243.00,0.44,0.13,0.50,-0.12,0.05,-0.11,149.19,-56.69,73.87,0.06,0.19,-0.19,1,1
1772722065.436964,955364,0.04,0.00,0.00,-21.81,-68.00,243.00,-0.31,0.44,0.44,-0.13,0.03,-0.10,149.19,-56.69,73.87,0.25,0.13,-0.13,1,1
1772722065.437579,955404,0.00,0.03,0.01,-21.87,-68.00,243.00,-0.44,0.31,0.88,-0.14,0.04,-0.13,149.19,-56.69,73.87,0.25,0.06,0.19,1,1
1772722065.438049,955444,0.06,0.02,-0.02,-21.94,-68.00,242.94,-0.62,0.31,0.50,-0.12,0.06,-0.14,149.19,-56.69,73.87,-0.31,0.00,-0.06,1,1
1772722065.438512,955484,0.08,0.01,-0.06,-21.87,-68.00,242.94,-1.19,-0.44,0.00,-0.08,0.06,-0.17,149.25,-56.69,73.87,-0.62,0.00,0.00,1,1
1772722065.438932,955524,0.04,0.04,0.00,-21.81,-67.94,242.87,-0.44,-1.31,-0.13,-0.10,0.07,-0.11,149.25,-56.75,73.81,0.06,-0.50,0.19,1,1
1772722065.439292,955564,0.01,0.02,0.03,-21.75,-67.94,242.87,0.19,-1.19,-0.25,-0.09,0.08,-0.10,149.25,-56.75,73.81,0.19,0.19,0.06,1,1
1772722065.439660,955604,0.07,0.00,0.00,-21.75,-67.87,242.94,0.31,-1.31,-0.37,-0.10,0.07,-0.13,149.25,-56.75,73.81,0.06,0.13,0.06,1,2
1772722065.440035,955645,0.00,-0.02,0.03,-21.69,-67.81,242.94,0.06,-1.12,-0.69,-0.08,0.04,-0.16,149.25,-56.75,73.81,0.00,-0.31,0.06,1,2
1772722065.440412,955685,-0.01,-0.02,0.02,-21.56,-67.75,242.94,0.19,-0.81,-0.37,-0.13,0.07,-0.12,149.19,-56.75,73.81,0.00,-0.13,0.06,2,2
1772722065.440785,955725,-0.02,-0.03,0.00,-21.56,-67.75,242.94,-0.37,-0.25,-0.06,-0.10,0.06,-0.09,149.19,-56.75,73.81,0.19,0.13,0.31,2,2
1772722065.441164,955765,0.05,0.01,-0.02,-21.56,-67.75,242.94,-0.75,-0.25,0.75,-0.13,0.11,-0.18,149.25,-56.75,73.81,-0.37,-0.06,0.62,2,2
1772722065.441548,955806,0.04,-0.01,-0.01,-21.56,-67.75,242.94,-0.50,-1.00,-0.88,-0.11,0.07,-0.18,149.25,-56.75,73.75,-1.06,-0.44,-0.06,2,2
1772722065.441931,955846,-0.01,0.00,0.02,-21.44,-67.69,242.94,-0.75,-2.00,0.06,-0.08,0.08,-0.10,149.25,-56.75,73.69,-0.62,-0.88,0.19,1,2
1772722065.442314,955886,-0.03,-0.08,0.02,-21.37,-67.62,242.94,-0.31,-1.19,0.56,-0.05,0.07,-0.18,149.25,-56.81,73.62,-0.69,-1.44,0.37,1,2
1772722065.442684,955926,0.17,-0.11,0.00,-21.37,-67.62,242.94,-0.88,0.37,0.44,-0.09,0.09,-0.08,149.25,-56.88,73.56,-0.44,-1.62,0.50,2,2
1772722065.443050,955965,0.08,-0.02,0.04,-21.31,-67.56,242.87,-2.37,-2.25,0.75,-0.10,0.04,-0.13,149.19,-56.88,73.56,-0.31,-0.31,0.13,1,2
1772722065.443612,956006,-0.11,0.03,0.06,-21.25,-67.50,242.81,-1.87,-1.69,1.00,-0.15,0.13,-0.17,149.19,-56.88,73.56,-0.06,-0.25,-0.13,1,2
1772722065.444025,956046,0.03,-0.01,-0.02,-21.31,-67.50,242.75,-0.44,0.81,1.31,-0.14,0.11,-0.08,149.19,-56.88,73.56,-0.19,-0.06,-0.50,1,2
1772722065.444410,956086,0.08,0.02,-0.06,-21.44,-67.50,242.69,-0.62,0.88,1.06,-0.08,0.06,-0.13,149.12,-56.88,73.56,-0.56,0.50,-1.00,2,2
1772722065.444767,956127,0.05,0.06,-0.04,-21.56,-67.50,242.62,-0.13,-0.19,1.19,-0.13,0.08,-0.13,149.12,-56.88,73.56,-0.62,-0.13,-0.50,2,2
1772722065.445099,956167,0.07,0.00,0.01,-21.62,-67.44,242.62,-0.25,-0.88,0.50,-0.07,0.06,-0.13,149.12,-56.88,73.56,0.00,-0.13,-0.13,2,2
1772722065.445435,956207,-0.03,0.04,0.02,-21.56,-67.44,242.62,-0.19,-1.12,0.19,-0.13,0.08,-0.11,149.12,-56.88,73.56,0.00,-0.19,0.00,2,1
1772722065.445760,956247,0.02,0.04,-0.05,-21.56,-67.37,242.62,0.44,-1.25,0.62,-0.13,0.07,-0.11,149.12,-56.88,73.56,0.13,-0.56,0.00,2,1
1772722065.458615,956287,0.05,0.01,0.00,-21.62,-67.37,242.62,1.19,0.06,0.44,-0.13,0.08,-0.15,149.12,-56.88,73.56,-0.06,-0.25,-0.25,2,1
1772722065.498879,956327,0.05,0.00,-0.02,-21.62,-67.37,242.62,-0.19,0.06,-0.31,-0.11,0.10,-0.14,149.12,-56.88,73.56,-0.56,0.00,-0.19,2,2
1772722065.538573,956367,-0.12,0.01,0.04,-21.56,-67.37,242.62,-1.19,1.62,-0.81,-0.14,0.08,-0.05,149.12,-56.88,73.56,0.37,-0.94,0.00,2,2
1772722065.578427,956407,0.12,0.07,0.01,-21.56,-67.37,242.62,-0.19,-0.88,0.50,0.00,-0.03,-0.15,149.12,-56.88,73.56,-0.25,0.31,0.06,2,2
1772722065.619177,956448,-0.02,-0.01,0.03,-21.50,-67.31,242.62,0.56,-1.94,0.37,-0.12,0.08,-0.11,149.12,-56.88,73.56,0.25,-0.25,0.31,2,2
1772722065.659548,956488,-0.12,0.09,0.07,-21.44,-67.25,242.62,-0.69,-1.06,-0.75,-0.15,0.08,-0.14,149.12,-56.88,73.56,-0.75,0.69,0.19,2,2
1772722065.699686,956528,-0.03,0.00,0.02,-21.37,-67.25,242.62,0.19,-0.50,-1.19,-0.14,0.06,-0.20,149.19,-56.88,73.56,-0.88,0.31,-0.19,2,2
1772722065.739704,956568,0.06,0.00,0.03,-21.31,-67.25,242.69,0.69,-0.13,-0.44,-0.06,0.09,-0.10,149.19,-56.88,73.50,-0.37,0.25,0.06,2,2
1772722065.780181,956609,0.07,-0.01,-0.01,-21.25,-67.31,242.69,-0.19,0.06,-0.50,-0.08,0.09,-0.12,149.19,-56.88,73.50,-0.19,0.25,0.31,2,3
1772722065.819886,956649,0.01,0.00,0.00,-21.19,-67.31,242.75,0.00,0.25,-0.19,-0.10,0.07,-0.19,149.19,-56.88,73.50,0.06,0.75,0.13,2,3
1772722065.859930,956689,0.00,0.00,-0.02,-21.19,-67.31,242.75,0.37,-0.13,0.25,-0.11,0.08,-0.17,149.19,-56.88,73.50,0.06,0.06,0.44,2,3
1772722065.900080,956729,0.03,0.00,0.00,-21.19,-67.31,242.75,0.06,0.13,-0.75,-0.06,0.11,-0.20,149.19,-56.88,73.50,-0.25,0.44,0.00,3,2
1772722065.940424,956769,0.04,0.00,0.00,-21.12,-67.31,242.75,-0.13,-0.25,-0.62,-0.09,0.10,-0.17,149.19,-56.88,73.50,-0.25,0.31,-0.25,2,2
1772722065.980559,956809,0.00,0.01,0.00,-21.12,-67.31,242.75,0.19,-0.56,0.19,-0.10,0.12,-0.13,149.19,-56.88,73.50,0.31,0.19,0.19,2,2
1772722066.020718,956849,-0.06,0.06,0.09,-21.12,-67.31,242.75,0.00,0.06,-0.25,-0.16,0.14,-0.15,149.19,-56.88,73.50,0.13,0.25,0.31,3,2
1772722066.060884,956889,-0.65,0.37,0.61,-21.12,-67.31,242.75,1.19,3.75,-0.56,-0.16,0.16,-0.11,149.25,-56.88,73.44,-0.88,-1.56,1.37,3,2
1772722066.100792,956930,-1.57,0.93,1.44,-21.50,-67.69,242.81,6.87,25.37,-3.31,-0.29,0.30,0.00,149.31,-57.00,73.25,-2.00,-4.00,2.94,3,3
1772722066.140130,956969,-0.42,0.72,1.03,-22.81,-69.12,243.25,20.19,51.13,-8.88,-0.21,0.12,-0.11,149.56,-57.19,72.81,-3.69,-1.00,1.81,4,3
1772722066.180459,957009,0.31,0.22,0.27,-25.06,-71.06,244.00,26.00,49.44,-8.94,-0.04,0.01,-0.27,149.81,-57.25,72.44,-4.31,-1.37,1.81,5,3
1772722066.221408,957050,0.57,-0.29,-0.32,-27.50,-72.75,245.00,28.50,38.25,-9.13,-0.10,0.03,-0.25,150.06,-57.44,72.00,-1.19,-4.94,4.25,5,3
1772722066.261715,957090,0.82,-0.54,-0.74,-29.69,-74.06,245.94,21.06,26.00,-7.81,0.02,0.11,-0.22,150.31,-57.63,71.69,-2.50,-3.62,4.31,5,2
1772722066.301725,957130,0.55,-0.48,-0.69,-31.00,-74.94,246.62,11.44,12.38,-6.25,0.01,0.13,-0.24,150.44,-57.75,71.37,-1.44,-3.62,3.25,5,2
1772722066.340999,957169,0.47,-0.45,-0.55,-31.19,-75.44,247.19,4.25,3.75,-4.69,-0.10,0.11,-0.20,150.62,-57.94,71.06,-0.31,-3.50,3.75,5,2
1772722066.381501,957210,0.09,-0.15,-0.21,-30.81,-75.56,247.37,0.69,-1.00,-3.75,-0.23,0.03,-0.01,150.75,-58.13,70.81,1.87,-3.94,5.12,6,3
1772722066.422037,957251,-0.29,0.02,0.06,-30.44,-75.56,247.44,1.37,1.87,-1.31,-0.36,0.26,0.11,150.87,-58.38,70.62,2.44,-4.31,5.50,6,3
1772722066.462264,957291,-0.28,0.16,0.00,-30.69,-75.75,247.62,3.37,8.44,-1.19,-0.37,0.28,0.16,151.06,-58.75,70.37,2.81,-1.75,3.44,5,3
1772722066.502331,957331,-0.04,0.00,-0.31,-31.62,-76.12,247.75,7.50,15.88,-3.12,-0.32,0.20,0.22,151.06,-58.88,70.37,2.12,0.69,0.50,5,3
1772722066.541812,957370,0.07,-0.27,-0.46,-32.88,-76.75,248.06,9.75,18.06,-3.50,-0.22,0.24,0.19,151.12,-58.94,70.37,0.56,3.06,-1.75,5,3
1772722066.582269,957411,0.12,-0.30,-0.62,-34.56,-77.44,248.44,7.87,17.19,-1.87,-0.28,0.15,0.05,151.12,-58.88,70.44,4.06,3.12,-0.62,4,3
1772722066.622882,957451,0.25,-0.25,-0.69,-36.13,-77.87,248.50,4.31,10.25,0.19,-0.25,0.12,-0.01,151.06,-58.75,70.75,5.25,3.56,-0.19,4,3
1772722066.662832,957492,0.33,-0.16,-0.65,-37.75,-78.37,248.62,2.06,2.94,1.87,-0.27,0.31,0.08,151.00,-58.63,71.19,6.75,5.06,0.50,4,4
1772722066.702852,957532,0.24,-0.05,-0.57,-39.00,-78.62,248.56,2.31,0.37,0.94,-0.19,0.24,0.08,151.00,-58.50,71.56,9.13,7.75,0.31,4,4
1772722066.742329,957571,0.17,-0.12,-0.54,-39.88,-78.81,248.69,4.56,0.50,-1.62,-0.22,0.23,0.09,151.00,-58.25,72.12,5.56,11.81,-1.37,4,5
1772722066.783054,957611,0.32,-0.16,-0.42,-40.19,-79.06,249.00,5.81,-0.19,-3.50,-0.05,-0.16,-0.23,151.19,-57.81,72.69,2.12,14.75,-4.94,4,4
1772722066.823693,957652,0.38,-0.34,-0.05,-39.25,-79.19,249.50,7.75,-7.81,-5.94,0.00,-0.01,-0.33,151.31,-57.25,73.12,-6.06,11.75,-7.06,5,4
1772722066.863931,957692,0.23,-0.31,0.22,-37.44,-79.00,249.94,4.00,-14.75,-1.75,-0.03,0.07,-0.31,151.56,-56.56,73.19,-3.94,10.63,-6.31,5,4
1772722066.903909,957732,0.22,-0.11,0.37,-35.69,-78.50,250.00,-2.06,-16.81,2.50,0.06,-0.06,-0.25,151.62,-56.19,73.50,2.75,12.88,-4.75,5,4
1772722066.943045,957772,0.11,0.19,0.47,-34.19,-77.81,249.87,-3.94,-18.69,4.69,0.15,-0.34,-0.24,151.62,-55.63,74.31,6.50,13.19,-2.94,5,4
1772722066.983589,957812,0.06,0.36,0.66,-33.06,-77.12,249.62,-2.44,-17.25,5.25,0.05,-0.25,-0.16,151.56,-55.19,75.00,4.44,11.50,-3.00,5,4
1772722067.024338,957853,0.13,0.29,0.58,-32.19,-76.56,249.37,-1.19,-13.00,3.50,0.22,-0.29,-0.32,151.56,-54.63,75.75,1.81,13.88,-4.06,5,4
1772722067.064596,957893,0.17,0.40,0.49,-31.50,-75.75,249.12,-1.75,-10.50,0.94,0.18,-0.44,-0.33,151.62,-53.88,76.50,-0.31,10.94,-3.44,5,4
1772722067.104794,957933,0.09,0.25,0.49,-30.69,-75.12,248.94,-0.94,-9.69,-0.69,0.32,-0.33,-0.37,151.62,-53.31,77.06,-1.12,7.06,-2.25,5,4
1772722067.144058,957972,0.31,0.18,0.55,-29.81,-74.56,248.81,-0.69,-8.25,-1.81,0.35,-0.20,-0.40,151.62,-53.06,77.31,-0.56,4.06,-1.19,5,3
1772722067.184607,958013,0.31,0.04,0.36,-28.75,-74.00,248.87,-0.81,-10.56,-2.56,0.15,-0.18,-0.34,151.62,-52.75,77.62,-1.31,2.19,-1.44,4,3
1772722067.225580,958054,-0.13,-0.02,0.43,-27.50,-73.56,249.00,-0.56,-10.69,-2.25,0.05,-0.11,-0.26,151.69,-52.50,77.75,-1.81,1.25,-2.31,4,3
1772722067.265440,958094,0.07,-0.09,0.35,-26.81,-73.31,249.06,0.19,-5.50,0.00,0.17,-0.02,-0.27,151.62,-52.31,77.94,-0.62,2.12,-2.75,4,3
1772722067.305512,958134,0.28,-0.21,0.41,-26.37,-73.06,249.12,0.69,-4.19,1.12,0.17,-0.02,-0.26,151.62,-52.19,78.00,-0.69,2.00,-2.69,4,4
1772722067.344643,958173,0.06,-0.23,0.30,-25.94,-72.81,249.12,-0.88,-3.69,1.69,0.00,0.03,-0.26,151.62,-51.94,78.19,-3.50,3.62,-4.56,4,3
1772722067.385136,958214,0.04,-0.22,0.24,-25.50,-72.62,249.06,-4.12,-3.19,0.81,-0.01,0.10,-0.29,151.69,-51.69,78.19,-4.87,4.94,-5.44,4,3
1772722067.426017,958254,0.04,-0.21,0.05,-24.94,-72.50,248.94,-5.50,-4.12,-0.50,-0.04,0.10,-0.29,151.81,-51.44,78.12,-6.44,2.44,-5.75,3,3
1772722067.466214,958295,-0.05,-0.20,0.11,-24.25,-72.31,248.81,-5.37,-6.12,0.25,-0.05,0.12,-0.31,151.94,-51.25,77.81,-6.31,0.13,-4.87,3,3
1772722067.506597,958335,-0.18,-0.10,0.12,-23.75,-72.06,248.50,-4.87,-5.00,1.87,-0.16,0.19,-0.22,152.00,-51.19,77.62,-4.06,-2.37,-2.56,3,3
1772722067.545697,958374,-0.16,-0.02,0.14,-23.50,-71.87,248.31,-3.81,-3.19,1.37,-0.18,0.22,-0.14,152.12,-51.25,77.31,-3.31,-1.44,-1.94,3,4
1772722067.586207,958414,-0.15,-0.03,0.08,-23.37,-71.81,248.19,-2.31,-1.31,1.06,-0.15,0.17,-0.11,152.25,-51.25,77.06,-1.25,-1.69,-0.50,4,4
1772722067.626763,958455,-0.03,-0.10,0.02,-23.50,-71.81,248.00,-1.50,2.25,1.81,-0.12,0.15,-0.04,152.31,-51.31,76.87,-0.62,-0.94,0.75,3,4
1772722067.666730,958495,0.11,0.00,-0.01,-23.75,-71.87,247.81,-1.62,3.37,2.31,0.01,0.08,-0.16,152.37,-51.38,76.75,2.19,-1.56,3.00,3,4
1772722067.706904,958535,0.07,0.21,-0.04,-24.12,-71.94,247.62,-1.12,2.00,3.00,-0.06,0.11,-0.22,152.37,-51.56,76.81,6.31,-3.00,5.75,3,4
1772722067.745919,958575,0.01,0.21,0.00,-24.44,-71.94,247.50,2.25,1.19,-1.44,-0.13,0.03,-0.09,152.31,-51.75,76.87,3.94,-0.31,2.75,3,4
1772722067.786730,958615,-0.01,-0.11,0.00,-24.44,-72.00,247.69,3.75,1.62,-3.00,-0.03,0.09,-0.12,152.31,-51.75,76.94,-0.31,-0.69,0.75,3,4
1772722067.827416,958656,0.05,-0.19,-0.02,-24.37,-72.19,247.87,3.12,2.81,-3.06,-0.09,0.10,-0.13,152.31,-51.88,76.81,1.06,-4.56,1.56,3,5
1772722067.867656,958696,0.04,-0.08,-0.06,-24.25,-72.31,248.06,3.81,1.25,-0.62,-0.07,0.11,-0.15,152.25,-52.06,76.81,3.44,-2.50,1.44,4,4
1772722067.907573,958736,0.00,0.11,-0.04,-24.62,-72.31,248.19,7.25,1.00,3.44,-0.08,0.17,-0.14,152.12,-52.19,77.00,13.00,-6.06,4.87,4,4
1772722067.946826,958775,-0.02,0.14,0.06,-25.44,-72.31,248.25,12.31,1.00,2.94,-0.15,0.05,-0.04,151.75,-52.44,77.56,12.13,-2.12,5.06,3,3
1772722067.987246,958816,-0.12,-0.07,0.09,-26.31,-72.31,248.56,13.44,2.19,2.31,-0.17,0.00,-0.06,151.50,-52.63,78.00,9.56,-3.19,5.06,3,3
1772722068.028032,958857,-0.13,-0.14,0.09,-27.12,-72.44,248.81,10.13,5.44,0.13,-0.09,-0.08,-0.15,151.37,-52.75,78.31,5.31,-1.69,4.69,2,3
1772722068.068321,958897,-0.05,-0.19,0.10,-27.56,-72.62,249.06,5.12,6.00,-3.12,-0.08,0.00,-0.14,151.37,-52.94,78.31,0.69,-2.75,4.12,2,3
1772722068.108418,958937,0.03,-0.22,0.00,-27.56,-72.94,249.31,0.94,7.31,-4.00,-0.09,0.00,-0.05,151.50,-53.13,78.00,-1.44,-3.19,3.44,2,3
1772722068.147842,958976,0.06,-0.20,-0.02,-27.50,-73.25,249.44,-1.44,8.63,-3.62,-0.11,-0.04,0.01,151.62,-53.25,77.75,-3.44,-3.81,2.87,2,3
1772722068.188266,959017,0.10,-0.20,-0.11,-27.50,-73.62,249.50,-2.37,8.94,-2.69,-0.10,-0.13,-0.05,151.87,-53.38,77.31,-5.62,-0.75,0.88,2,2
1772722068.229038,959057,0.03,-0.13,-0.13,-27.62,-73.94,249.44,-4.69,7.25,-0.44,-0.17,-0.07,-0.05,152.06,-53.44,76.81,-8.00,-2.12,0.06,2,3
1772722068.269239,959098,0.02,0.12,-0.14,-27.94,-74.25,249.12,-6.62,7.50,1.44,-0.15,-0.02,-0.06,152.31,-53.50,76.31,-6.12,-4.31,0.44,1,3
1772722068.309115,959138,0.07,0.19,-0.15,-28.37,-74.44,248.81,-5.87,7.19,1.75,-0.13,0.00,-0.04,152.44,-53.69,75.81,-2.44,-3.75,0.88,1,3
1772722068.348139,959177,0.09,0.28,-0.19,-29.19,-74.62,248.37,-3.31,6.37,4.00,-0.10,0.00,-0.07,152.37,-53.88,75.69,5.50,-5.12,3.62,1,3
1772722068.388590,959217,0.12,0.44,-0.17,-30.62,-74.75,248.06,0.13,5.62,4.62,-0.29,0.00,0.03,152.19,-54.13,75.87,9.81,-3.19,3.87,1,3
1772722068.429368,959258,-0.12,0.09,-0.10,-31.87,-74.81,248.00,7.12,3.81,0.75,-0.30,-0.07,0.06,151.87,-54.25,76.31,6.06,-1.44,0.69,1,3
1772722068.469873,959298,-0.02,-0.17,-0.19,-32.56,-74.94,248.31,5.37,6.12,-0.19,-0.19,-0.07,0.04,151.69,-54.31,76.62,2.19,-0.69,-0.81,1,3
1772722068.510008,959338,0.01,-0.28,-0.20,-33.13,-75.19,248.44,1.44,5.87,-1.00,-0.22,-0.06,0.00,151.62,-54.31,76.62,-4.19,2.69,-2.50,1,2
1772722068.549090,959378,0.06,-0.23,-0.26,-33.38,-75.44,248.44,-3.69,3.94,0.37,-0.21,-0.04,-0.19,151.81,-54.13,76.44,-6.56,4.06,-2.00,1,2
1772722068.589804,959418,0.15,-0.14,-0.29,-33.44,-75.56,248.31,-6.37,-0.13,0.94,-0.02,0.14,-0.39,152.06,-53.94,76.19,-8.50,5.19,-0.75,1,3
1772722068.630596,959459,0.29,0.00,-0.40,-32.88,-75.44,248.00,-9.69,-9.63,-0.62,0.09,0.08,-0.41,152.37,-53.94,75.81,-4.06,-4.06,0.50,1,1
1772722068.670878,959499,0.46,-0.06,-0.54,-31.44,-75.12,247.81,-7.25,-17.62,-2.75,-0.10,0.14,-0.15,152.50,-54.19,75.25,-3.19,-8.88,0.31,1,1
1772722068.710749,959539,0.60,-0.32,-0.56,-29.44,-74.50,247.87,-3.94,-28.37,-1.87,-0.18,0.18,-0.07,152.44,-54.31,74.94,-6.00,-6.50,-1.69,1,4
1772722068.750049,959578,1.05,-0.43,-0.63,-27.00,-73.56,247.87,-7.00,-40.25,-0.50,-0.34,0.38,0.32,152.50,-54.50,74.44,-3.87,-5.31,-1.81,1,4
1772722068.790527,959619,-0.78,-0.09,0.13,-24.12,-72.00,247.81,-10.50,-46.88,-2.56,-0.28,0.08,0.38,152.37,-54.63,74.19,-5.69,-2.50,-4.06,1,4
1772722068.831206,959660,-0.95,-0.05,0.89,-21.69,-70.87,247.87,-7.69,-15.13,-3.37,-0.27,0.13,0.30,152.37,-54.81,73.69,-9.31,0.88,-7.87,1,4
1772722068.871327,959700,-0.26,-0.09,0.53,-21.06,-70.62,247.75,-5.50,5.62,1.31,-0.05,-0.07,-0.02,152.37,-54.63,73.44,-8.81,3.06,-7.50,3,5
1772722068.911303,959740,0.03,0.00,0.20,-21.44,-70.94,247.37,-6.37,12.00,3.56,0.09,-0.07,-0.23,152.44,-54.38,73.25,-5.19,2.94,-4.94,3,5
1772722068.950747,959779,0.11,0.08,0.10,-22.06,-71.31,247.00,-5.44,11.00,3.31,-0.04,-0.08,-0.22,152.37,-54.31,73.12,-5.00,-2.19,-5.50,3,5
1772722068.991021,959819,0.08,0.00,0.06,-22.62,-71.62,246.75,-3.81,8.88,2.62,-0.05,-0.02,-0.05,152.25,-54.25,72.94,-6.00,-3.12,-5.37,3,6
1772722069.031637,959860,0.00,0.06,0.00,-23.31,-71.87,246.44,-4.06,9.13,5.94,-0.10,0.09,-0.04,152.19,-54.31,72.75,-1.37,-3.37,-0.81,4,6
1772722069.071950,959901,0.24,0.14,-0.15,-24.25,-72.12,246.06,-3.75,10.75,5.31,-0.08,-0.03,-0.09,152.12,-54.44,72.69,3.94,-1.75,2.06,4,6
1772722069.111774,959940,0.27,0.24,-0.13,-25.31,-72.37,245.69,-2.87,8.25,4.87,0.00,-0.07,-0.03,152.00,-54.44,72.94,4.25,1.87,1.37,5,3
1772722069.151013,959980,0.23,0.17,-0.13,-26.25,-72.56,245.44,-0.19,5.25,3.44,-0.10,0.00,-0.13,152.00,-54.38,73.19,2.87,3.19,-0.13,4,3
1772722069.191427,960020,0.16,0.14,-0.07,-27.00,-72.62,245.25,0.81,2.87,2.25,-0.09,0.00,-0.19,151.94,-54.25,73.50,3.44,4.37,-1.06,5,3
1772722069.232096,960061,0.05,0.16,-0.02,-27.44,-72.69,245.25,3.00,0.81,1.19,-0.15,0.08,-0.13,151.87,-54.06,73.87,4.37,3.31,-1.06,5,3
1772722069.272532,960101,-0.06,0.07,0.03,-27.75,-72.69,245.31,5.62,0.75,0.37,-0.18,-0.04,-0.09,151.69,-53.94,74.25,4.75,1.75,-1.37,3,2
1772722069.312622,960141,-0.08,-0.13,-0.02,-28.12,-72.69,245.56,6.56,1.87,0.50,-0.17,-0.08,-0.08,151.50,-53.88,74.62,4.00,1.37,-1.87,3,2
1772722069.351960,960181,-0.08,-0.12,0.01,-28.50,-72.81,245.69,4.62,3.25,1.06,-0.19,-0.05,-0.05,151.31,-53.81,74.94,2.50,0.56,-1.31,3,2
1772722069.392584,960221,0.01,-0.09,-0.03,-28.94,-72.87,245.75,1.50,3.19,1.25,-0.08,-0.05,-0.17,151.12,-53.75,75.19,2.62,-0.75,-1.12,3,2
1772722069.433259,960262,0.22,0.00,-0.17,-29.25,-72.94,245.75,-1.37,1.12,2.06,-0.10,-0.06,-0.19,151.00,-53.75,75.37,2.06,-0.81,-0.69,2,2
1772722069.473353,960302,0.33,0.02,-0.27,-29.44,-72.87,245.62,-1.87,-4.37,1.44,-0.12,-0.07,-0.26,150.94,-53.75,75.44,-1.69,0.37,-1.87,2,3
1772722069.524768,960342,0.43,-0.07,-0.41,-29.12,-72.69,245.69,-1.00,-11.25,0.44,-0.05,-0.03,-0.37,151.00,-53.63,75.37,-4.87,3.19,-3.62,1,3
1772722069.553177,960381,0.47,-0.36,-0.67,-28.19,-72.25,245.69,-1.69,-22.94,-1.19,-0.07,-0.15,-0.17,151.12,-53.50,75.19,-7.25,-0.88,-4.50,1,3
1772722069.593716,960422,0.92,-0.39,-0.62,-26.37,-71.12,245.75,-8.19,-44.81,1.87,-0.29,0.19,0.23,151.19,-53.44,74.75,-10.88,-6.06,-5.44,1,3
1772722069.634012,960462,-0.18,0.01,-0.10,-24.00,-69.50,245.75,-12.50,-42.94,1.19,0.01,0.24,-0.01,151.12,-53.50,74.37,-3.37,-2.12,-4.31,1,4
1772722069.674280,960503,-0.20,0.49,0.53,-22.06,-68.12,245.56,-10.38,-31.75,-2.06,-0.03,-0.02,-0.10,151.06,-53.56,74.25,1.62,-6.56,-0.62,1,4
1772722069.714191,960543,-0.23,0.32,0.86,-20.44,-67.19,245.50,-6.75,-20.31,-4.37,0.00,-0.12,-0.15,150.81,-53.75,74.25,-1.19,-4.44,-1.50,2,4
1772722069.753599,960582,-0.66,0.37,1.14,-19.37,-66.62,245.56,0.13,-7.94,-4.00,0.00,-0.26,-0.21,150.75,-53.81,74.12,-3.81,-3.87,0.25,2,4
1772722069.793811,960622,-0.58,0.02,1.16,-19.00,-66.50,245.81,1.81,1.62,-3.25,-0.26,-0.01,-0.02,150.81,-54.06,73.50,-8.94,-7.75,2.81,2,4
1772722069.834591,960663,-0.98,-0.01,0.80,-18.94,-66.75,245.94,-4.50,15.38,-1.50,-0.40,0.00,0.20,151.12,-54.25,72.81,-7.69,-4.50,1.69,3,3
1772722069.874860,960703,-1.04,0.09,0.49,-19.37,-67.62,245.75,-3.87,37.31,-0.31,-0.49,0.14,0.32,151.37,-54.38,72.19,-10.38,-1.31,-0.06,5,3
1772722069.914626,960743,-0.60,0.40,0.37,-20.94,-69.31,245.62,5.94,58.75,0.19,-0.55,0.08,0.43,151.75,-54.63,71.25,-12.50,-0.31,-2.19,6,4
1772722069.953892,960783,0.00,0.26,0.07,-23.75,-71.56,245.75,9.50,68.94,-2.44,-0.29,0.05,0.13,152.06,-54.63,70.56,-8.81,9.44,-5.12,7,4
1772722069.994617,960823,1.47,-0.04,-0.82,-27.50,-73.94,245.81,3.44,43.81,-1.94,0.12,-0.23,-0.47,152.31,-54.25,70.56,-2.37,8.13,-3.62,7,4
1772722070.035207,960864,1.83,-0.10,-1.06,-30.06,-75.31,245.75,0.69,28.37,-0.44,0.80,-0.20,-1.04,152.44,-54.00,70.75,4.44,3.19,4.25,8,4
1772722070.075806,960904,1.78,-0.04,-0.62,-31.19,-75.75,245.75,-1.44,-13.38,0.94,0.53,-0.37,-0.50,152.44,-54.25,70.81,7.37,-8.94,11.25,8,4
1772722070.115587,960944,-0.14,0.31,0.71,-29.25,-74.94,245.75,-7.50,-17.12,-3.00,0.10,0.20,-0.04,152.50,-54.69,70.62,3.94,-8.94,8.44,10,4
1772722070.154703,960984,-0.82,0.46,1.04,-27.50,-74.69,245.87,1.31,0.31,-6.69,-0.15,0.07,-0.09,152.50,-55.00,70.56,5.12,0.00,3.25,9,4
1772722070.195251,961024,-0.68,-0.01,0.87,-27.37,-74.94,246.31,10.75,12.56,-4.37,-0.15,0.19,-0.33,152.37,-55.06,70.81,6.12,-2.94,2.87,9,4
1772722070.236014,961065,-0.20,-0.31,0.29,-28.50,-75.56,246.75,14.19,18.06,-2.69,-0.15,0.03,-0.26,152.25,-55.19,71.06,8.13,-2.75,2.25,8,6
1772722070.276023,961105,0.30,-0.52,-0.01,-30.19,-76.31,247.44,11.94,19.06,-1.62,0.00,0.00,-0.25,152.06,-55.31,71.37,6.81,-3.56,1.69,7,6
1772722070.316100,961145,0.37,-0.43,-0.31,-31.81,-76.87,247.62,5.44,12.00,0.25,-0.22,0.03,0.06,151.87,-55.44,71.56,1.19,1.12,-0.69,6,5
1772722070.355326,961184,0.14,-0.50,-0.51,-32.88,-77.12,247.75,4.50,5.06,1.50,-0.32,0.15,0.17,151.94,-55.31,71.56,-5.44,7.50,-4.44,6,4
1772722070.395935,961225,0.00,-0.48,-0.63,-33.88,-77.25,247.75,0.19,6.69,4.31,-0.13,0.42,-0.12,152.12,-55.19,71.44,2.25,-0.75,1.69,8,4
1772722070.436877,961265,0.44,-0.10,-0.43,-35.19,-77.44,247.50,-5.12,3.75,5.50,0.00,0.23,-0.23,152.12,-55.25,71.56,8.13,-0.13,5.06,8,5
1772722070.476956,961306,0.38,0.03,-0.08,-35.94,-77.37,247.12,-2.25,-2.06,3.75,0.08,0.14,-0.41,152.00,-55.38,71.94,13.50,-5.62,5.44,8,5
1772722070.516890,961346,0.29,0.05,0.34,-36.25,-77.19,247.00,3.87,-1.37,4.31,0.21,-0.07,-0.38,151.69,-55.50,72.69,17.37,-4.44,6.69,7,6
1772722070.556063,961385,0.31,-0.04,0.46,-37.13,-77.12,247.06,8.06,2.00,5.19,0.24,-0.40,-0.36,151.19,-55.63,73.56,19.06,-3.12,2.87,7,6
1772722070.596604,961425,0.25,-0.03,0.44,-37.50,-76.81,247.00,2.56,-8.31,7.44,0.00,-0.46,-0.17,150.50,-55.88,74.50,9.19,-6.44,4.94,8,7
1772722070.637558,961466,-0.11,0.09,0.19,-37.25,-76.31,246.87,-2.75,-11.88,1.50,0.09,-0.26,-0.21,150.50,-55.88,74.62,-6.31,4.94,0.13,9,6
1772722070.678091,961506,0.49,-0.14,-0.41,-35.94,-76.00,246.81,-9.88,-8.94,-5.87,-0.15,0.02,0.17,150.87,-55.75,74.12,-13.19,-2.75,-1.56,10,5
1772722070.718102,961546,0.47,-0.35,-0.69,-33.56,-75.81,246.75,-14.94,-15.75,-8.69,-0.38,0.17,0.05,151.19,-55.88,73.12,-18.00,-2.62,-5.50,10,6
1772722070.757590,961586,0.49,-0.33,-0.75,-30.44,-75.37,246.75,-11.94,-31.31,-2.75,-0.11,0.16,-0.29,151.50,-55.81,72.37,-9.94,-5.19,-2.56,10,6
1772722070.797743,961626,0.32,-0.16,-0.15,-27.94,-74.50,246.69,-7.12,-33.81,0.37,-0.14,0.07,0.08,151.56,-56.06,71.69,-9.31,-8.50,-0.06,9,6
1772722070.838174,961667,0.02,0.11,0.12,-25.00,-73.12,246.50,-13.81,-42.38,0.13,-0.18,-0.04,0.31,151.75,-56.31,70.94,-8.25,-8.25,0.00,9,5
1772722070.878577,961707,-0.61,0.32,0.36,-22.56,-71.69,246.25,-12.31,-26.81,2.37,-0.38,-0.07,0.20,151.75,-56.63,70.37,-2.75,-10.88,0.69,9,5
1772722070.918312,961747,-0.39,0.56,0.20,-21.62,-70.94,245.81,-8.00,-11.00,2.06,-0.41,0.00,0.26,151.69,-56.88,70.00,-2.25,1.75,-1.06,10,6
1772722070.957806,961786,-0.45,0.43,0.02,-21.37,-70.62,245.62,-2.06,-2.69,0.56,-0.42,-0.11,0.12,151.69,-56.88,70.06,2.94,5.37,-2.37,10,5
1772722070.998181,961827,-0.22,0.40,0.00,-21.56,-70.37,245.44,-2.62,-4.94,1.25,-0.18,-0.19,0.03,151.44,-56.63,70.56,8.06,5.06,-4.19,10,5
1772722071.038613,961868,0.10,0.16,0.18,-21.56,-70.25,245.25,0.31,-2.00,0.37,0.15,-0.25,0.00,151.12,-56.38,71.31,4.81,8.38,-4.50,9,6
1772722071.078912,961908,0.18,0.25,0.25,-21.75,-70.25,245.19,2.06,5.31,2.62,0.08,-0.22,-0.43,150.87,-56.06,72.00,10.50,4.75,-1.50,10,6
1772722071.119013,961948,-0.07,0.23,0.58,-22.50,-70.25,245.12,6.25,0.13,3.00,0.01,-0.16,-0.32,150.50,-55.94,72.69,8.75,2.00,-0.56,10,6
1772722071.158209,961987,-0.27,0.19,0.67,-23.06,-70.12,245.25,7.06,1.56,1.75,0.17,-0.13,-0.32,150.31,-55.75,73.37,8.63,1.44,1.00,10,7
1772722071.198812,962028,-0.01,0.03,0.42,-23.62,-70.31,245.31,7.44,10.75,0.69,0.06,-0.01,-0.24,150.06,-55.75,73.87,8.13,-3.00,2.25,9,10
1772722071.239838,962068,-0.42,-0.07,0.41,-24.50,-70.69,245.50,9.13,11.25,-0.44,0.07,0.02,-0.16,149.87,-55.81,74.25,5.25,-2.75,1.94,9,11
1772722071.280001,962109,-0.21,-0.05,0.45,-25.62,-71.25,245.75,9.56,21.19,-0.06,-0.01,0.11,-0.30,149.69,-55.94,74.44,7.81,-5.94,4.37,9,12
1772722071.319736,962148,-0.56,0.02,0.55,-27.12,-72.00,246.06,12.88,27.56,-0.19,-0.28,0.17,0.02,149.50,-56.13,74.62,5.87,-0.37,2.12,8,11
1772722071.358941,962188,-0.26,0.11,0.57,-29.50,-73.12,246.50,19.25,39.50,-1.87,-0.19,0.09,-0.11,149.37,-56.13,75.00,3.94,0.50,0.19,8,11
1772722071.399762,962228,0.70,-0.46,-0.27,-32.88,-74.44,247.00,23.62,37.31,-0.69,0.18,-0.16,-0.51,149.37,-55.94,75.25,-4.62,7.87,-2.37,7,10
1772722071.440443,962269,1.16,-0.90,-0.80,-36.38,-75.37,247.50,18.19,15.25,3.25,0.19,-0.04,-0.44,149.75,-55.69,75.00,-5.00,8.19,2.12,7,10
1772722071.480456,962309,0.52,-0.56,-0.75,-37.75,-75.44,247.75,2.12,-7.94,5.12,-0.10,0.01,-0.27,150.25,-55.56,74.87,3.06,3.25,6.44,7,10
1772722071.520712,962349,0.56,-0.06,-0.76,-37.25,-75.00,247.50,-8.13,-16.62,5.31,-0.12,0.33,-0.19,150.62,-55.44,75.06,8.13,5.25,6.06,6,10
1772722071.559810,962389,0.87,0.25,-0.96,-36.19,-74.31,247.19,1.56,-14.19,3.81,-0.31,0.17,-0.09,150.56,-55.44,75.56,13.19,4.37,2.19,6,9
1772722071.600393,962429,1.12,-0.31,-1.22,-35.88,-73.94,247.31,10.81,-9.38,2.12,-0.20,0.09,-0.09,150.25,-55.31,76.37,9.06,1.44,-3.50,6,7
1772722071.640967,962470,1.38,-0.31,-1.52,-33.88,-72.87,247.75,14.44,-40.00,4.56,0.11,0.43,0.03,149.69,-55.19,77.19,14.13,1.62,-6.62,5,6
1772722071.681231,962510,1.31,0.12,-1.79,-32.13,-71.25,248.19,21.87,-58.13,8.19,-0.47,0.91,1.00,148.75,-55.13,78.37,25.87,-6.00,-2.94,4,6
1772722071.721343,962550,-0.49,0.17,-0.79,-29.94,-68.81,249.00,29.50,-76.56,3.87,-1.06,1.00,1.17,147.44,-55.13,80.19,24.25,3.31,-9.06,5,5
1772722071.760812,962589,-1.10,-0.27,-0.25,-28.62,-66.37,250.19,44.75,-53.75,8.44,-0.88,1.08,0.74,146.37,-54.63,82.00,15.50,10.69,-14.00,5,4
1772722071.800976,962630,-0.64,0.20,0.09,-29.06,-64.75,251.25,39.44,-47.56,6.06,-0.95,-0.16,0.10,145.25,-54.31,83.62,19.37,3.81,-9.00,5,6
1772722071.841874,962671,-1.96,-0.12,1.34,-29.19,-63.19,252.06,30.81,-29.31,9.44,-1.02,-0.44,-0.01,144.75,-53.94,84.87,6.50,11.00,8.50,5,6
1772722071.881996,962711,-1.22,0.56,2.16,-29.12,-61.88,252.56,6.31,-23.37,3.81,-0.57,-0.66,-0.09,145.19,-53.75,85.37,9.31,4.81,11.25,4,6
1772722071.922049,962751,-0.09,0.77,2.00,-28.81,-61.50,252.56,-3.69,1.12,-0.31,0.45,-1.92,-0.29,145.31,-53.63,85.94,16.12,26.81,-0.69,5,6
1772722071.961239,962790,0.85,0.89,1.79,-29.06,-61.69,252.44,-12.63,18.12,7.25,0.96,-2.25,-0.17,145.69,-52.88,87.44,9.88,36.75,3.81,5,5
1772722072.001699,962830,1.17,1.16,1.97,-29.44,-62.25,251.56,-31.25,24.69,3.12,1.94,-1.43,-0.98,146.87,-51.63,88.44,-12.50,42.19,8.25,5,5
1772722072.042624,962871,0.61,1.27,2.20,-28.94,-63.19,250.56,-40.63,34.19,-9.56,1.20,-0.27,-0.45,148.94,-50.88,87.56,-22.50,-2.00,24.69,4,4
1772722072.082722,962911,1.01,0.88,1.62,-28.00,-64.81,249.81,-38.38,46.31,-15.81,1.55,-0.98,-0.89,150.75,-51.00,85.87,-11.44,28.81,16.87,4,4
1772722072.122747,962951,1.38,0.46,1.18,-27.25,-66.75,249.25,-32.31,46.81,-16.06,1.22,-0.14,-0.87,152.44,-50.94,84.69,-8.25,-4.31,32.56,3,4
1772722072.162094,962991,0.99,0.10,0.90,-26.69,-68.50,248.87,-22.56,36.81,-17.00,0.80,-0.07,-0.82,154.06,-51.75,82.62,-12.06,-9.13,32.50,3,6
1772722072.202804,963031,0.52,-0.31,0.61,-25.81,-70.00,248.87,-13.06,27.19,-17.81,0.10,-0.23,-0.64,155.56,-52.50,80.75,-9.00,-9.81,26.00,4,5
1772722072.243817,963072,-0.45,-0.58,0.23,-24.94,-71.12,249.12,-7.12,21.12,-12.19,-0.92,0.02,-0.18,156.69,-53.25,79.06,-10.13,-21.56,17.44,4,5
1772722072.284009,963112,-0.89,-0.98,-0.14,-24.69,-72.00,249.25,-6.31,23.44,-5.12,-0.63,0.12,0.22,157.37,-54.19,77.25,-21.81,-15.25,3.94,5,4
1772722072.323897,963152,0.44,-0.47,-0.89,-25.69,-73.00,248.94,-13.19,35.88,2.87,-0.41,0.90,-0.54,157.94,-54.69,75.50,-12.31,-16.44,-0.50,5,4
1772722072.362851,963192,0.88,-0.29,-1.00,-27.44,-74.06,248.06,-12.13,20.00,2.44,0.08,0.68,-0.71,157.94,-55.13,74.87,3.56,-8.50,4.00,4,4
1772722072.403498,963232,0.37,-0.09,-0.66,-28.06,-74.56,247.75,-5.19,9.25,-2.00,-0.56,0.38,0.33,157.69,-55.69,74.87,10.69,-21.00,6.62,5,4
1772722072.444193,963273,-0.16,-0.52,-0.17,-28.25,-74.81,247.69,1.37,11.00,2.62,0.01,0.51,0.28,157.19,-56.50,74.87,6.81,-12.44,0.06,5,6
1772722072.484204,963313,-0.02,-0.26,-0.33,-29.87,-75.19,247.56,3.25,15.81,7.37,-0.39,0.53,0.22,156.56,-56.94,75.19,9.38,-19.31,1.81,6,7
1772722072.524052,963353,-0.03,0.01,-0.43,-32.00,-75.62,247.37,6.31,14.38,7.06,-0.32,0.51,-0.08,156.00,-57.63,75.44,15.31,-8.81,2.50,6,10
1772722072.563211,963392,0.50,0.00,-0.45,-34.25,-75.94,247.31,9.06,9.25,3.00,0.00,0.09,0.34,155.25,-58.00,76.25,16.12,-11.25,0.75,6,9
1772722072.603886,963433,0.49,-0.03,-0.52,-35.38,-76.12,247.56,12.13,2.37,1.00,0.05,0.00,0.06,154.44,-58.38,77.00,10.06,-9.19,-2.31,6,10
1772722072.645293,963474,0.31,-0.15,-0.63,-36.13,-76.12,247.87,12.69,-5.75,-0.56,-0.54,-0.39,0.30,153.62,-58.69,77.37,-4.12,-4.81,-7.06,6,10
1772722072.685511,963514,-0.12,-0.30,-0.22,-35.75,-76.06,248.37,8.69,-5.25,-5.31,-0.28,-0.24,0.27,153.56,-58.44,77.06,-21.94,4.94,-15.13,5,9
1772722072.725349,963554,0.50,-0.45,-0.16,-35.06,-76.00,248.75,-0.69,-4.69,-1.12,-0.33,-0.02,0.18,153.56,-58.13,76.44,-22.31,-1.87,-12.63,4,10
1772722072.764526,963593,-0.29,0.02,-0.16,-34.38,-75.81,248.62,-8.25,-5.94,-1.56,-0.46,0.02,-0.32,153.94,-57.69,75.50,-24.81,9.63,-10.00,5,10
1772722072.805137,963633,0.75,-0.01,-0.23,-33.00,-75.69,248.50,-12.38,-10.75,-3.12,0.32,-0.11,-0.61,154.50,-57.13,74.81,-14.81,11.56,-11.56,4,10
1772722072.845443,963674,0.05,0.16,0.41,-31.12,-75.19,248.12,-19.19,-20.19,1.19,0.34,0.07,-0.64,154.50,-56.88,74.50,3.37,-5.37,0.56,4,8
1772722072.885993,963714,0.20,0.16,0.51,-28.87,-74.50,247.50,-23.12,-23.37,-1.37,-0.16,-0.24,-0.07,154.25,-57.25,74.69,8.81,-2.87,7.44,3,7
1772722072.925620,963754,1.01,0.06,0.23,-26.00,-73.69,246.94,-25.50,-28.75,-2.75,0.36,-0.32,-0.33,154.37,-57.19,74.94,3.69,-3.81,6.19,5,4
1772722072.965127,963794,-0.77,0.62,0.56,-23.12,-72.56,246.31,-24.94,-33.69,-4.00,0.27,-0.03,-0.26,154.37,-57.50,74.94,4.81,-12.44,7.31,5,4
1772722073.005628,963834,-0.56,0.47,0.30,-20.25,-71.69,246.06,-15.00,-15.63,-13.13,-0.35,-0.06,0.38,154.19,-58.00,74.75,0.75,1.00,-6.69,6,3
1772722073.046605,963875,0.83,-0.13,-0.30,-17.87,-71.50,246.37,-2.69,-12.56,-13.81,0.04,-0.37,-0.16,153.62,-57.88,75.19,3.31,-5.81,-9.13,6,2
1772722073.086521,963915,-0.41,-0.16,0.13,-16.06,-71.00,246.69,4.44,-17.56,-4.75,-0.40,0.04,0.34,153.06,-57.81,75.37,-9.94,3.31,-10.31,6,3
1772722073.126533,963955,-0.88,0.05,0.17,-15.69,-70.37,246.94,7.19,-9.25,3.00,-0.59,0.41,-0.17,153.00,-57.50,75.19,-4.37,3.81,-10.06,6,3
1772722073.165851,963994,0.25,-0.07,-0.14,-16.19,-70.19,246.87,7.25,-2.37,3.94,-0.22,0.45,-0.38,152.50,-57.25,75.75,14.69,2.25,-6.50,6,4
1772722073.206141,964035,0.69,-0.11,-0.22,-16.87,-70.00,246.87,7.69,-5.50,7.00,0.15,0.25,-0.58,151.37,-57.19,77.31,31.94,-8.25,-1.19,7,5
1772722073.247049,964076,-0.06,-0.01,0.54,-17.50,-69.69,246.94,12.44,-7.00,-1.25,0.10,0.25,-0.26,149.81,-57.50,79.06,23.87,-10.63,-3.56,10,6
1772722073.287442,964116,0.03,-0.40,0.49,-17.37,-69.56,247.50,13.19,-2.12,-7.75,0.06,0.21,-0.47,148.37,-57.63,80.56,21.37,-6.62,-6.44,11,8
1772722073.327647,964156,0.05,-0.89,0.52,-17.12,-69.56,248.12,13.00,-2.19,-6.62,-0.09,-0.12,-0.10,147.31,-57.69,81.69,8.31,0.88,-7.69,9,9
1772722073.366515,964195,0.08,-0.48,0.36,-17.06,-69.56,248.56,8.00,0.13,-0.75,0.07,-0.18,-0.37,146.75,-57.31,82.56,2.94,4.31,-9.31,9,10
1772722073.407078,964236,0.21,-0.33,0.28,-17.37,-69.56,248.75,8.25,-1.37,0.75,0.09,-0.28,-0.20,146.37,-56.94,83.00,-5.06,6.25,-12.00,7,11
1772722073.447849,964277,0.41,-0.28,0.24,-18.00,-69.37,248.94,12.25,-7.06,6.37,0.06,-0.48,0.07,146.37,-56.38,83.12,-19.56,11.69,-16.44,7,11
1772722073.487952,964317,0.27,-0.29,0.19,-18.87,-68.94,249.06,11.88,-8.13,10.94,0.36,-0.17,-0.16,146.69,-55.56,82.75,-22.56,9.06,-22.19,7,11
1772722073.527946,964357,0.49,0.20,0.10,-20.00,-68.50,248.87,5.94,-5.44,14.25,0.19,-0.16,-0.23,146.62,-55.00,82.56,-12.56,3.50,-16.94,8,12
1772722073.567385,964396,0.05,0.35,0.27,-21.31,-68.06,248.62,4.87,-8.13,13.81,0.02,-0.09,-0.26,146.44,-54.50,82.62,-6.19,0.00,-10.06,7,12
1772722073.607868,964437,-0.58,0.57,0.75,-22.44,-67.69,248.25,2.87,0.94,10.94,-0.30,-0.20,-0.16,146.12,-54.38,82.69,-1.75,-3.19,-10.25,6,11
1772722073.648613,964477,-0.78,0.47,0.87,-23.62,-67.75,248.00,6.31,13.44,8.13,-0.39,-0.24,-0.04,145.50,-54.38,82.94,1.87,-7.81,-9.63,3,11
1772722073.688917,964518,-0.72,0.29,0.87,-25.31,-68.19,247.81,10.00,27.25,7.87,-0.25,-0.30,-0.05,144.81,-54.31,83.25,0.13,-5.25,-9.81,2,9
1772722073.728765,964557,-0.53,0.30,0.94,-27.87,-69.19,247.75,12.00,43.13,7.06,-0.07,-0.30,0.05,144.19,-54.25,83.56,-1.56,-6.37,-9.31,3,8
1772722073.767754,964597,0.07,0.35,0.67,-31.69,-70.69,247.56,14.69,57.94,9.56,0.15,-0.33,-0.09,143.62,-54.13,83.75,-5.00,0.56,-8.69,3,7
1772722073.808510,964637,0.95,0.20,-0.09,-37.06,-72.31,247.25,13.88,51.88,11.19,0.29,-0.32,-0.38,143.56,-53.94,83.69,-4.69,3.25,-2.94,3,7
1772722073.849098,964678,1.26,0.32,-0.61,-42.06,-73.44,247.06,8.44,34.44,3.94,0.13,-0.16,-0.36,143.75,-53.88,83.56,-3.75,0.62,0.88,3,7
1772722073.889697,964718,1.09,0.00,-0.96,-44.75,-74.19,247.12,3.19,17.25,-3.50,0.04,-0.04,-0.40,143.94,-53.75,83.44,-0.37,-2.31,-0.62,3,10
1772722073.929757,964758,0.71,-0.07,-0.63,-45.25,-74.56,247.25,-1.19,-0.06,-6.31,-0.05,-0.25,-0.09,143.87,-53.75,83.44,1.75,-3.69,-0.62,3,9
1772722073.969543,964798,0.33,-0.09,-0.02,-44.00,-74.56,247.44,-1.62,-9.81,-3.00,0.02,-0.16,0.04,143.75,-53.81,83.50,1.12,1.00,1.00,3,8
1772722074.009633,964838,0.12,-0.19,0.23,-42.81,-74.31,247.50,-7.19,-6.87,0.81,-0.11,0.01,0.06,143.81,-53.75,83.56,-2.62,3.12,1.56,3,8
1772722074.050310,964879,-0.33,0.24,0.59,-42.13,-74.19,247.25,-10.63,0.06,-0.31,-0.28,0.03,-0.14,144.12,-53.69,83.44,-2.81,6.81,1.12,4,8
1772722074.090332,964919,-0.37,0.37,0.35,-41.94,-74.31,247.00,-6.87,6.81,-2.50,-0.52,0.12,-0.08,144.50,-53.56,83.37,-3.87,0.88,4.00,3,9
1772722074.130264,964959,-0.04,0.23,0.17,-42.13,-74.56,246.87,-3.06,7.81,-4.75,-0.16,-0.04,-0.18,144.94,-53.50,83.00,-3.87,6.44,2.69,4,10
1772722074.169667,964998,-0.16,0.01,0.19,-42.13,-74.87,247.00,-0.56,6.50,-5.31,-0.29,0.23,-0.12,145.37,-53.56,82.62,-4.00,-1.94,7.69,4,12
1772722074.210117,965039,-0.07,-0.01,0.12,-42.31,-75.25,247.12,-0.37,9.06,-4.69,-0.21,0.10,-0.20,145.87,-53.63,82.31,1.81,10.88,8.44,4,12
1772722074.250824,965079,0.13,-0.26,0.03,-42.56,-75.69,247.37,-3.06,9.25,-6.56,-0.11,-0.09,-0.14,146.50,-53.56,82.37,8.00,5.69,14.81,4,11
1772722074.290926,965120,0.20,-0.18,0.10,-42.50,-76.12,247.44,-6.12,8.63,-4.69,-0.03,-0.26,-0.20,147.00,-53.69,82.44,6.75,4.19,17.75,4,10
1772722074.330733,965159,0.31,-0.10,0.23,-42.38,-76.44,247.56,-8.00,5.19,-3.00,0.09,-0.06,-0.26,147.69,-53.88,82.25,4.44,3.37,18.00,4,10
1772722074.369952,965199,0.23,0.07,0.32,-42.00,-76.62,247.37,-10.13,5.56,-4.44,0.24,-0.07,-0.29,148.37,-54.06,81.94,4.00,-0.06,16.87,3,10
1772722074.411016,965240,0.26,0.08,0.25,-41.31,-76.81,247.25,-8.63,4.94,-9.31,0.08,0.08,-0.28,149.06,-54.31,81.56,-1.44,-0.25,12.94,3,9
1772722074.451565,965280,0.13,-0.16,0.08,-40.00,-77.12,247.44,-5.62,3.31,-10.44,-0.17,0.11,-0.31,149.75,-54.50,81.00,-2.62,0.94,8.88,2,8
1772722074.491626,965320,0.31,-0.30,-0.18,-38.81,-77.44,247.56,-2.56,1.81,-8.81,-0.04,0.10,-0.30,150.19,-54.50,80.69,0.75,1.69,4.12,3,7
1772722074.531511,965360,0.71,-0.43,-0.15,-37.69,-77.69,247.87,0.19,-1.44,-6.69,0.38,0.19,-0.16,150.37,-54.56,80.62,2.81,-0.13,1.75,2,6
1772722074.570817,965399,0.75,-0.37,-0.10,-36.63,-77.69,248.06,1.62,-7.25,-2.87,0.37,0.06,-0.24,150.25,-54.63,80.81,4.37,-2.56,0.25,2,4
1772722074.611528,965440,0.02,-0.36,0.15,-35.44,-77.50,248.25,2.62,-11.63,-2.25,0.01,-0.15,-0.38,150.06,-54.69,80.87,-3.37,-0.75,-4.44,2,3
1772722074.652720,965481,-0.68,-0.25,0.50,-34.13,-77.12,248.37,-1.19,-12.50,0.00,-0.57,-0.07,-0.19,149.94,-54.75,80.62,-6.50,-8.38,-6.00,2,4
1772722074.692809,965521,-0.59,-0.10,0.50,-33.19,-76.75,248.31,-2.87,-5.62,2.31,-0.38,-0.03,-0.12,149.62,-54.88,80.37,-3.25,-9.50,-5.75,2,4
1772722074.732151,965561,-0.16,0.01,0.27,-33.00,-76.62,248.19,-5.25,0.19,2.75,-0.21,-0.01,0.06,149.19,-55.19,80.12,-1.87,-8.81,-2.37,2,5
1772722074.771385,965600,0.18,0.16,0.09,-33.38,-76.56,247.75,-6.87,4.00,4.75,0.05,0.00,-0.10,148.94,-55.44,79.94,4.25,-10.25,1.94,2,6
1772722074.812099,965641,0.34,0.46,0.02,-34.31,-76.56,247.25,-5.69,2.62,6.31,-0.01,-0.21,-0.02,148.44,-55.94,80.00,8.88,-13.88,5.94,1,6
1772722074.853168,965682,0.15,0.44,0.11,-34.88,-76.50,246.94,-2.44,-0.25,2.81,-0.05,-0.04,-0.15,148.19,-56.44,79.81,-0.44,-0.62,4.37,1,6
1772722074.893344,965722,0.20,0.36,-0.04,-35.38,-76.37,246.75,-0.69,-2.19,-0.13,-0.21,-0.10,-0.07,148.62,-56.38,79.50,-11.25,9.94,4.12,1,8
1772722074.932973,965762,0.47,-0.02,-0.48,-35.13,-76.25,246.81,2.12,-5.69,-5.81,-0.07,0.00,-0.18,149.81,-55.94,78.75,-17.44,5.19,6.50,1,8
1772722074.972114,965801,0.60,-0.32,-0.65,-33.44,-76.12,247.19,1.00,-14.25,-8.44,-0.04,0.01,-0.04,150.87,-56.13,77.37,-11.13,1.50,7.87,2,8
1772722075.012942,965842,0.67,-0.54,-0.97,-30.94,-75.69,247.50,-5.56,-25.56,-4.94,-0.06,0.21,-0.29,151.50,-56.19,76.87,8.25,0.50,7.56,3,9
1772722075.053726,965882,0.89,-0.41,-0.69,-27.87,-75.06,247.69,-13.75,-41.81,-2.31,-0.29,0.17,0.07,151.44,-56.31,77.31,17.56,-0.56,7.50,3,9
1772722075.094033,965923,-0.25,0.03,0.07,-24.12,-73.37,247.44,-17.81,-52.13,-1.94,-0.13,0.22,-0.02,150.94,-56.56,78.25,27.25,-6.81,6.25,4,10
1772722075.133980,965962,-0.54,0.27,0.47,-20.94,-71.69,247.19,-13.69,-40.38,-1.69,-0.52,-0.06,0.44,149.75,-57.13,79.62,30.56,-21.37,6.69,4,8
1772722075.173091,966002,-0.44,0.09,0.67,-19.06,-70.44,247.00,-5.69,-26.75,0.13,-0.34,-0.01,0.35,148.56,-57.75,80.56,8.00,4.81,-4.69,3,7
1772722075.213916,966042,-0.62,-0.01,0.77,-18.12,-69.62,247.00,-3.44,-16.06,-0.37,-0.27,-0.08,0.10,148.25,-57.56,81.00,-4.87,8.81,-6.62,4,7
1772722075.254596,966083,-0.19,-0.08,0.43,-17.87,-69.37,246.87,-2.75,-1.69,1.25,-0.15,0.04,-0.26,148.44,-57.13,81.06,-8.56,3.69,-5.94,4,9
1772722075.294519,966123,0.00,-0.05,0.36,-17.75,-69.31,246.75,-4.75,-1.37,0.19,0.05,0.11,-0.45,148.56,-56.75,81.00,-6.19,6.06,-6.12,4,9
1772722075.334610,966163,-0.01,0.16,0.38,-17.50,-69.19,246.62,-2.19,-1.56,-1.94,-0.06,0.07,-0.35,148.75,-56.50,80.87,-5.25,4.12,-4.81,4,9
1772722075.373777,966203,0.03,0.09,0.36,-17.19,-69.06,246.75,3.00,0.00,-4.31,-0.08,0.14,-0.26,148.94,-56.25,80.75,-5.87,6.81,-7.06,4,9
1772722075.414399,966243,-0.02,-0.05,0.25,-16.94,-69.12,247.06,5.44,2.56,-4.00,-0.08,0.10,-0.26,149.00,-55.88,80.94,0.50,-2.31,-4.75,3,8
1772722075.455310,966284,-0.18,-0.19,0.09,-16.81,-69.25,247.37,6.00,3.50,-3.62,-0.08,-0.05,-0.10,148.75,-55.75,81.12,-0.25,7.50,-10.56,2,8
1772722075.495365,966324,-0.03,-0.16,0.07,-16.81,-69.44,247.62,4.19,4.50,-1.00,-0.03,-0.11,-0.12,148.44,-55.44,81.56,1.56,-1.69,-3.31,2,7
1772722075.535160,966364,-0.01,-0.14,0.15,-17.00,-69.62,247.69,3.19,4.56,0.56,-0.04,-0.07,-0.03,148.25,-55.44,81.69,-3.12,1.62,-3.37,2,6
1772722075.574863,966403,-0.07,-0.15,0.24,-17.25,-69.75,247.75,1.94,7.50,1.50,-0.03,-0.08,-0.17,148.25,-55.31,81.56,-4.00,-2.87,-1.31,2,7
1772722075.615234,966444,-0.23,-0.02,0.42,-17.62,-70.06,247.75,1.06,11.50,1.06,-0.08,-0.05,-0.04,148.25,-55.38,81.31,-8.06,-2.19,-3.87,2,8
1772722075.655970,966485,-0.29,0.10,0.41,-18.19,-70.50,247.69,3.69,20.56,0.94,-0.08,-0.02,-0.23,148.31,-55.31,80.94,-7.25,-1.56,-5.69,2,8
1772722075.696186,966525,-0.20,0.18,0.28,-19.37,-71.19,247.62,7.25,25.31,4.44,-0.03,-0.12,-0.18,148.25,-55.25,80.69,-6.31,-2.44,-5.31,2,7
1772722075.735872,966565,0.38,-0.04,-0.09,-21.50,-72.06,247.56,13.69,25.44,7.69,-0.13,-0.06,-0.04,148.25,-55.19,80.44,-4.75,-2.37,-3.19,4,7
1772722075.775272,966604,0.53,-0.21,-0.31,-24.06,-72.75,247.56,11.69,18.75,7.56,-0.04,0.04,-0.18,148.19,-55.19,80.31,-1.50,-0.50,-3.06,4,8
1772722075.816014,966645,0.58,-0.11,-0.62,-26.12,-73.25,247.56,5.81,12.31,3.25,-0.14,-0.01,-0.13,148.00,-55.25,80.31,1.19,-3.31,-4.12,4,8
1772722075.856719,966685,0.49,-0.09,-0.36,-26.87,-73.50,247.56,1.00,4.62,1.50,0.02,-0.06,-0.23,147.50,-55.31,80.62,10.38,-10.06,-1.69,4,8
1772722075.896911,966726,0.28,0.17,0.07,-27.12,-73.56,247.44,-4.69,-1.44,3.62,-0.01,-0.26,0.01,146.69,-55.56,81.25,13.81,-5.19,-0.69,4,8
1772722075.936252,966765,0.15,0.32,0.28,-27.44,-73.37,247.06,-0.25,-3.25,6.12,0.03,-0.34,0.02,146.00,-55.63,82.12,16.00,0.06,2.00,5,9
1772722075.975602,966805,0.09,0.54,0.40,-28.12,-73.25,246.81,-1.75,3.50,3.69,-0.10,-0.37,0.04,145.44,-55.75,82.94,10.00,-2.94,4.37,4,9
1772722076.016445,966845,-0.18,0.63,0.36,-28.62,-73.44,246.69,-1.25,7.56,0.31,-0.21,-0.18,-0.02,145.19,-55.88,83.25,2.19,0.94,1.87,4,8
1772722076.057237,966886,-0.10,0.25,0.13,-29.12,-73.50,246.75,6.25,7.44,-4.06,-0.16,-0.24,0.04,145.31,-55.88,83.19,-4.19,1.87,1.00,5,7
1772722076.097528,966926,-0.06,-0.03,0.01,-29.44,-74.00,247.25,1.25,14.75,-5.50,-0.20,-0.12,0.08,145.56,-55.88,82.87,-8.88,4.31,0.62,5,8
1772722076.137307,966966,0.03,0.07,0.10,-29.87,-74.62,247.37,-2.50,15.50,-4.62,0.13,0.04,-0.25,146.19,-55.69,82.50,-4.44,-1.00,5.94,4,9
1772722076.176577,967005,0.11,0.07,0.05,-30.19,-75.19,247.44,-0.62,10.69,-6.37,-0.15,0.00,-0.21,146.62,-55.88,81.81,-7.62,4.37,3.00,4,9
1772722076.217335,967046,0.07,-0.13,0.09,-30.06,-75.69,247.62,-1.19,11.19,-6.75,-0.05,0.06,-0.19,147.12,-55.94,81.19,-6.69,-1.56,4.50,4,11
1772722076.258035,967087,0.10,-0.10,0.04,-30.37,-76.25,247.75,1.19,15.00,-2.37,-0.02,0.08,-0.25,147.62,-56.06,80.69,-0.19,-1.94,8.06,5,11
1772722076.298161,967127,0.28,-0.04,0.00,-31.44,-76.69,247.87,4.25,10.31,-0.44,-0.04,0.00,-0.16,148.00,-56.25,80.37,2.94,-0.56,8.69,5,10
1772722076.337964,967167,-0.21,-0.14,-0.11,-32.38,-77.00,248.00,5.50,9.31,-0.69,-0.10,0.02,-0.10,148.25,-56.44,80.19,2.87,-2.06,6.81,4,10
1772722076.377398,967206,0.04,-0.16,-0.07,-33.38,-77.37,248.25,3.31,12.38,-2.37,-0.22,-0.07,0.08,148.44,-56.69,80.00,-1.56,1.06,3.37,4,9
1772722076.418306,967247,0.14,-0.16,-0.25,-34.19,-77.81,248.37,2.56,9.25,-2.12,-0.10,0.02,-0.07,148.81,-56.63,79.75,-6.87,3.25,2.75,4,9
1772722076.458682,967287,0.00,-0.15,-0.24,-34.94,-78.12,248.62,2.31,7.12,-1.62,-0.21,0.02,-0.09,149.37,-56.56,79.19,-8.31,3.94,1.94,3,9
1772722076.498907,967328,0.12,-0.11,-0.30,-35.44,-78.44,248.75,-0.62,4.87,-1.87,-0.21,0.07,-0.15,149.87,-56.50,78.75,-3.50,1.81,2.62,3,7
1772722076.538591,967367,0.17,-0.07,-0.22,-35.63,-78.62,248.75,0.25,0.81,-1.62,-0.11,0.03,-0.11,150.12,-56.50,78.56,1.19,1.44,1.75,3,6
1772722076.578104,967407,0.18,-0.06,-0.21,-35.44,-78.69,248.87,1.12,-2.44,-1.69,-0.11,-0.06,-0.06,150.19,-56.50,78.56,1.81,0.94,1.00,3,6
1772722076.618962,967447,0.06,-0.22,-0.04,-34.94,-78.62,248.94,-0.25,-3.75,0.62,-0.09,-0.02,-0.10,150.19,-56.50,78.69,2.87,-0.81,1.25,2,4
1772722076.659611,967488,-0.16,-0.10,0.03,-34.69,-78.50,248.87,-2.00,-1.31,2.69,-0.20,0.02,-0.03,150.12,-56.63,78.75,3.37,-1.25,2.50,2,6
1772722076.699801,967528,0.17,-0.01,-0.03,-34.88,-78.50,248.75,-3.81,1.69,1.19,-0.14,-0.05,-0.11,150.12,-56.63,78.87,1.12,1.69,0.69,2,6
1772722076.739604,967568,0.28,-0.02,0.00,-34.88,-78.50,248.56,-4.06,-0.56,-0.69,0.00,-0.12,-0.19,150.19,-56.56,78.87,-1.44,2.31,-0.75,2,8
1772722076.778887,967608,0.12,0.05,0.07,-34.50,-78.44,248.44,-2.69,-3.19,-0.44,0.00,-0.02,-0.21,150.25,-56.50,78.87,-1.31,-1.25,-0.25,2,8
1772722076.819606,967648,0.06,0.04,0.10,-34.00,-78.31,248.37,-0.62,-4.06,-0.62,-0.11,0.04,-0.08,150.25,-56.56,78.75,-1.37,0.00,-0.31,2,7
1772722076.860569,967689,0.10,-0.12,0.10,-33.50,-78.19,248.44,0.69,-2.12,-1.19,-0.01,0.03,-0.09,150.25,-56.50,78.69,-2.06,-0.69,-1.37,3,7
1772722076.900633,967729,-0.19,-0.13,0.13,-33.13,-78.19,248.50,0.00,-0.25,-0.06,-0.17,0.00,-0.11,150.31,-56.50,78.56,-1.81,-0.25,0.06,3,8
1772722076.940544,967769,0.00,-0.07,0.02,-33.13,-78.19,248.44,-1.87,1.94,0.37,-0.21,0.03,-0.07,150.37,-56.50,78.50,-0.50,0.31,0.81,3,7
1772722076.980296,967809,0.11,-0.03,-0.05,-33.25,-78.25,248.37,-1.37,0.94,2.00,-0.13,0.00,-0.08,150.44,-56.50,78.50,0.75,0.62,0.44,3,9
1772722077.020603,967849,0.22,0.01,-0.10,-33.69,-78.19,248.25,0.44,-0.62,2.37,-0.06,-0.04,-0.05,150.44,-56.50,78.50,0.31,1.06,-0.37,3,9
1772722077.061180,967890,-0.01,0.00,0.06,-33.94,-78.06,248.00,-0.13,-2.87,2.75,-0.12,0.07,-0.13,150.44,-56.44,78.50,0.19,0.37,0.37,4,8
1772722077.101629,967930,0.10,-0.04,0.11,-33.94,-77.94,248.00,-0.81,-1.94,-0.13,-0.07,-0.03,-0.19,150.50,-56.44,78.50,-0.50,1.56,-0.62,4,8
1772722077.141720,967970,0.02,0.03,0.11,-33.63,-77.87,247.94,-0.88,-1.19,-0.50,-0.03,-0.02,-0.10,150.50,-56.38,78.56,-0.37,-0.44,-0.19,4,8
1772722077.181614,968010,-0.05,-0.04,0.19,-33.50,-77.87,248.19,0.81,0.62,0.31,-0.12,0.00,-0.11,150.50,-56.38,78.56,-0.06,-0.25,0.00,4,8
1772722077.221532,968050,0.11,-0.11,0.06,-33.63,-77.87,248.19,1.37,3.31,0.75,-0.06,-0.08,-0.20,150.50,-56.38,78.56,0.81,0.31,0.06,4,9
1772722077.261933,968091,0.14,-0.10,-0.06,-34.13,-78.00,248.19,-0.06,3.06,1.19,-0.01,-0.12,-0.17,150.50,-56.38,78.56,0.88,0.44,-0.31,3,9
1772722077.302083,968131,0.18,-0.07,-0.02,-34.50,-78.06,248.12,-1.25,0.37,1.31,0.00,-0.06,-0.20,150.44,-56.31,78.62,0.62,-0.37,-0.88,3,7
1772722077.341702,968170,0.10,-0.03,0.00,-34.56,-78.00,247.94,-1.94,-2.37,1.50,-0.09,-0.03,-0.08,150.37,-56.38,78.69,0.00,-1.81,-0.94,3,7
1772722077.381098,968210,-0.05,0.00,0.10,-34.50,-77.87,247.81,-2.00,-1.37,2.44,-0.14,0.01,-0.05,150.31,-56.44,78.62,0.37,-1.69,0.06,3,6
1772722077.421325,968250,0.02,0.05,0.03,-34.75,-77.81,247.62,-3.31,1.25,1.87,-0.16,0.11,0.00,150.25,-56.44,78.62,0.88,-1.37,0.62,2,8
1772722077.462705,968291,-0.12,0.19,-0.01,-34.88,-77.87,247.56,-2.69,3.12,-0.56,-0.26,0.02,-0.04,150.25,-56.56,78.62,-0.13,-1.50,1.12,2,7
1772722077.502725,968331,0.34,0.04,-0.28,-35.31,-78.00,247.50,-1.19,7.00,-2.37,-0.07,-0.03,-0.20,150.25,-56.56,78.56,0.44,0.75,-0.25,2,7
1772722077.542703,968371,0.50,-0.19,-0.40,-35.38,-78.25,247.50,-2.94,1.25,-3.62,0.04,-0.13,-0.24,150.25,-56.50,78.62,-0.62,0.19,-1.69,3,7
1772722077.582917,968411,0.60,0.00,-0.37,-34.50,-78.31,247.56,-2.56,-8.44,-3.00,0.04,-0.12,-0.15,150.19,-56.44,78.69,-0.50,-0.88,-0.94,3,10
1772722077.622970,968452,0.24,-0.15,-0.18,-33.13,-78.00,247.62,-0.94,-17.31,0.81,-0.08,0.05,-0.12,150.06,-56.50,78.69,0.00,-1.06,-0.44,4,9
1772722077.663548,968492,0.05,-0.03,-0.14,-31.44,-77.37,247.56,-4.87,-19.44,0.50,-0.24,0.00,-0.02,150.06,-56.50,78.69,2.31,0.19,-0.37,4,10
1772722077.703623,968532,0.26,0.05,-0.26,-29.56,-76.75,247.44,-7.69,-21.62,-0.06,-0.24,0.00,-0.13,150.00,-56.44,78.87,1.37,1.75,-0.50,4,10
1772722077.743438,968572,0.54,0.13,-0.35,-27.50,-75.94,247.31,-8.88,-28.94,-0.94,-0.14,-0.04,-0.10,150.00,-56.38,79.00,1.12,2.94,-1.00,4,10
1772722077.782425,968611,0.40,0.23,-0.17,-24.62,-74.81,247.12,-7.94,-39.69,-3.50,-0.23,0.14,0.00,149.94,-56.31,79.12,3.00,2.06,0.37,4,10
1772722077.823012,968652,-0.29,0.31,0.14,-21.69,-73.44,247.19,-5.25,-41.00,-4.69,-0.09,0.03,-0.03,149.94,-56.25,79.37,4.69,0.94,1.37,5,9
1772722077.863829,968693,-0.41,0.25,0.41,-19.44,-72.25,247.44,-1.94,-27.25,-5.12,-0.25,0.01,0.04,149.81,-56.25,79.62,3.75,2.75,0.31,4,9
1772722077.904262,968733,-0.45,0.02,0.38,-17.87,-71.44,247.69,0.94,-16.69,-6.81,-0.11,-0.10,-0.04,149.75,-56.19,79.94,3.50,2.94,-0.69,4,9
1772722077.943889,968773,-0.07,-0.06,0.27,-16.81,-71.06,248.06,2.81,-8.50,-4.37,-0.09,-0.13,-0.05,149.69,-56.06,80.19,1.87,2.94,-0.69,4,9
1772722077.983061,968812,0.02,-0.07,0.18,-16.31,-70.81,248.25,2.37,-5.81,-2.31,0.00,-0.16,-0.15,149.69,-55.94,80.37,1.06,4.12,-0.37,4,5
1772722078.023739,968853,-0.80,0.16,0.41,-16.06,-70.69,248.44,1.62,2.06,-1.25,0.07,-0.13,-0.21,149.81,-55.81,80.50,-0.88,1.50,1.87,4,7
1772722078.064458,968893,-0.21,-0.05,0.47,-16.31,-70.87,248.50,3.44,6.00,-0.13,0.08,0.00,-0.23,149.94,-55.69,80.56,0.56,1.69,1.69,4,6
1772722078.104908,968934,-0.32,-0.04,0.56,-16.50,-71.19,248.62,2.19,9.44,-2.19,-0.13,0.00,-0.07,150.06,-55.63,80.56,-1.06,1.94,-0.31,4,6
1772722078.145178,968974,-0.41,-0.04,0.58,-16.81,-71.62,248.75,3.12,17.87,-1.06,-0.03,-0.02,-0.16,150.12,-55.56,80.50,-1.56,0.69,-0.25,4,6
1772722078.183979,969013,0.15,0.00,0.44,-17.69,-72.44,248.81,5.31,25.44,1.19,0.06,0.01,-0.23,150.25,-55.56,80.44,-1.50,1.00,-0.19,4,6
1772722078.224657,969053,-0.18,0.03,0.40,-19.00,-73.31,248.87,7.25,26.62,-0.50,0.00,0.05,-0.15,150.31,-55.50,80.31,-1.25,-1.37,1.44,4,5
1772722078.265609,969094,0.38,0.07,0.09,-20.56,-74.37,249.06,10.63,30.87,-0.81,-0.04,-0.02,-0.20,150.44,-55.56,80.25,-0.81,-0.37,1.31,4,5
1772722078.305845,969134,0.33,0.12,0.05,-22.37,-75.50,249.44,15.06,26.56,-1.87,-0.01,-0.01,-0.22,150.56,-55.56,80.12,-0.94,-1.00,2.37,5,5
1772722078.345308,969174,0.34,-0.10,-0.14,-24.25,-76.37,249.87,13.88,23.62,-1.25,-0.12,0.11,-0.16,150.69,-55.63,80.00,0.62,1.19,1.19,4,4
1772722078.385251,969214,0.14,0.02,-0.15,-26.00,-77.19,250.12,14.06,16.81,-2.81,0.00,-0.13,-0.16,150.75,-55.56,80.00,-0.88,-0.56,0.13,3,4
1772722078.426067,969255,0.42,-0.21,-0.22,-27.19,-77.75,250.62,11.38,10.31,-2.19,-0.07,-0.02,-0.08,150.75,-55.63,79.87,-2.00,-1.87,-0.50,3,2
1772722078.466558,969295,-0.06,-0.15,-0.03,-28.25,-78.06,251.19,10.38,8.06,1.62,-0.02,-0.15,-0.12,150.75,-55.69,79.75,-1.81,-2.69,-0.81,4,2
1772722078.506517,969335,0.06,-0.22,-0.02,-29.75,-78.31,251.44,8.00,9.69,2.31,-0.11,-0.05,-0.11,150.69,-55.75,79.56,-2.44,-1.87,-0.31,3,2
1772722078.546081,969375,-0.14,-0.13,0.01,-31.25,-78.62,251.50,2.31,10.06,5.25,-0.12,0.00,-0.10,150.75,-55.81,79.37,-3.00,-2.37,0.25,3,3
1772722078.585358,969414,-0.09,0.01,0.01,-33.25,-78.94,251.25,0.94,15.38,3.06,-0.09,0.05,-0.14,150.81,-55.94,79.12,-2.06,-2.44,0.06,2,4
1772722078.626056,969455,0.06,0.13,-0.01,-35.63,-79.37,251.19,2.31,16.06,2.69,-0.16,0.09,-0.09,150.81,-56.00,78.94,-2.06,-2.56,-0.69,2,5
1772722078.666919,969496,0.35,0.00,-0.31,-38.06,-79.75,251.12,5.81,11.63,0.37,-0.14,0.02,-0.12,150.81,-56.06,78.81,-3.00,-2.19,-2.44,2,6
1772722078.707532,969536,0.47,-0.26,-0.39,-39.50,-80.00,251.25,7.31,3.81,-0.31,-0.13,-0.06,-0.12,150.75,-56.13,78.56,-5.81,-3.56,-2.56,1,6
1772722078.747149,969576,0.18,-0.32,-0.29,-39.94,-80.19,251.50,1.37,-3.12,1.81,-0.08,0.03,-0.17,150.75,-56.19,78.25,-4.44,-4.56,-1.69,1,7
1772722078.786452,969615,0.08,-0.26,-0.15,-39.69,-80.06,251.44,-5.94,-4.00,3.12,-0.17,0.04,-0.01,150.69,-56.31,77.94,-2.69,-4.37,-0.81,2,8
1772722078.827079,969656,0.12,-0.12,-0.08,-39.31,-79.87,251.06,-10.44,-3.81,2.62,-0.10,0.04,0.00,150.69,-56.44,77.75,-2.12,-1.25,-0.62,2,10
1772722078.867830,969696,-0.15,0.25,0.06,-38.94,-79.69,250.62,-9.56,-0.88,2.75,-0.16,0.06,-0.05,150.69,-56.44,77.62,-0.31,-1.06,-0.69,2,10
1772722078.907817,969737,-0.08,0.31,0.06,-39.31,-79.69,250.25,-4.87,3.00,3.50,-0.13,-0.08,-0.07,150.62,-56.44,77.62,0.13,0.19,-1.25,2,11
1772722078.947952,969777,0.04,0.12,0.00,-40.38,-79.62,249.94,-1.06,2.19,4.87,-0.06,0.00,-0.13,150.56,-56.44,77.69,0.37,-0.81,-0.94,2,13
1772722078.987856,969817,-0.01,0.09,0.03,-41.50,-79.56,249.50,-0.31,2.19,4.44,-0.18,-0.09,-0.12,150.50,-56.44,77.75,0.00,0.44,-1.12,1,12
1772722079.028128,969857,-0.06,0.05,0.08,-42.50,-79.50,249.31,-1.31,3.56,3.81,-0.07,-0.03,-0.17,150.50,-56.38,77.81,-0.06,-1.00,0.13,2,13
1772722079.068699,969897,0.09,0.16,-0.06,-43.56,-79.56,249.12,-2.56,4.25,1.50,-0.26,-0.11,0.03,150.37,-56.50,77.81,-1.25,-1.31,-1.37,2,12
1772722079.108849,969937,0.01,0.10,-0.20,-44.31,-79.62,248.94,-1.00,4.94,-0.94,-0.01,-0.07,-0.05,150.37,-56.31,77.75,-5.19,2.56,-5.19,2,12
1772722079.148412,969977,0.17,-0.05,-0.27,-45.06,-79.87,249.12,-1.12,5.69,-1.50,0.15,-0.03,-0.28,150.44,-56.13,77.69,-3.31,2.56,-4.31,2,11
1772722079.187722,970017,0.24,0.00,0.00,-45.56,-80.06,249.06,-4.50,2.81,-1.94,0.07,-0.01,-0.20,150.37,-56.06,77.75,-0.94,1.94,-0.50,1,10
1772722079.228478,970057,0.31,-0.08,-0.02,-45.38,-80.12,249.00,-6.12,0.81,-2.00,-0.08,-0.01,-0.05,150.44,-56.00,77.75,0.94,1.62,1.25,1,8
1772722079.268823,970098,0.02,0.22,0.13,-44.94,-80.12,248.75,-5.31,-3.06,1.25,-0.19,0.04,0.06,150.50,-56.00,77.75,1.25,-0.13,1.94,1,8
1772722079.309248,970138,-0.22,0.02,0.06,-44.50,-79.94,248.56,-1.56,-2.62,1.37,-0.07,0.11,-0.25,150.62,-56.00,77.69,-1.81,1.50,1.37,2,7
1772722079.348912,970178,0.24,0.03,-0.08,-44.63,-79.87,248.50,0.00,0.25,2.06,-0.04,-0.03,-0.23,150.69,-56.06,77.75,4.31,-0.56,2.94,1,6
1772722079.388564,970217,0.34,-0.14,-0.05,-44.63,-79.81,248.44,0.19,-3.44,-0.62,0.02,-0.06,-0.15,150.62,-56.06,77.94,2.81,-2.06,-0.06,1,7
1772722079.429270,970258,0.20,-0.29,0.01,-43.75,-79.69,248.50,-0.94,-5.75,-0.56,-0.01,-0.09,-0.09,150.44,-56.19,78.00,0.56,-2.44,-1.12,1,5
1772722079.469542,970298,0.02,-0.10,0.06,-42.75,-79.56,248.44,-4.12,-6.50,2.19,-0.17,0.00,-0.10,150.31,-56.25,78.00,2.06,-3.44,0.62,1,5
1772722079.509830,970339,-0.14,0.03,0.14,-41.94,-79.25,248.12,-6.00,-7.56,2.94,-0.25,0.04,-0.06,150.19,-56.38,78.06,0.06,-1.19,0.31,2,7
1772722079.550053,970379,0.07,0.11,-0.04,-41.31,-79.00,247.87,-5.62,-4.37,2.50,-0.10,-0.06,-0.06,150.19,-56.38,78.00,-0.94,1.44,-0.94,2,8
1772722079.589337,970418,0.27,0.13,-0.32,-41.00,-78.81,247.37,-3.94,-4.56,1.87,-0.12,-0.03,-0.17,150.25,-56.31,77.94,-2.00,0.56,0.50,2,7
1772722079.629991,970459,0.51,0.02,-0.53,-40.38,-78.62,247.25,-3.06,-11.38,0.81,-0.03,-0.02,-0.20,150.37,-56.25,77.87,-1.37,1.12,0.31,2,7
1772722079.670360,970499,1.13,-0.30,-0.89,-38.31,-78.06,247.12,-7.06,-28.75,1.75,0.01,0.05,-0.15,150.37,-56.25,77.81,0.25,0.56,-0.06,2,8
1772722079.710743,970539,1.24,-0.37,-0.84,-34.38,-76.87,246.87,-16.69,-53.25,3.12,-0.10,-0.03,0.00,150.37,-56.25,77.94,2.50,0.00,0.31,1,8
1772722079.750353,970579,-0.33,0.15,0.09,-28.94,-74.75,246.37,-23.87,-70.94,-0.19,-0.30,0.11,0.04,150.25,-56.25,78.12,3.19,-0.25,0.69,2,8
1772722079.789735,970618,-0.85,0.31,0.56,-23.87,-72.44,246.06,-19.25,-56.56,-3.62,-0.37,0.13,0.10,150.19,-56.31,78.25,2.56,0.44,-1.19,2,7
1772722079.830377,970659,-1.22,0.42,0.90,-20.69,-70.75,245.94,-10.56,-33.56,-4.19,-0.39,0.14,0.19,150.00,-56.38,78.31,1.87,2.75,-2.50,2,7
1772722079.871456,970700,-0.37,0.30,0.52,-19.25,-69.94,246.06,-1.87,-15.25,-0.50,-0.07,-0.05,-0.04,149.94,-56.25,78.56,-0.06,6.69,-5.69,2,8
1772722079.911359,970740,0.03,0.15,0.17,-18.87,-69.56,246.06,4.50,-5.12,0.25,-0.07,0.01,-0.22,149.87,-55.94,78.87,0.62,4.62,-4.06,2,7
1772722079.951185,970780,-0.09,0.12,0.15,-18.94,-69.37,246.25,7.00,-3.56,0.37,0.11,-0.03,-0.26,149.81,-55.69,79.19,0.81,3.62,-2.94,2,6
1772722079.990607,970819,-0.26,-0.02,0.35,-19.12,-69.25,246.50,8.25,0.37,-0.56,0.09,-0.02,-0.23,149.69,-55.50,79.44,2.31,2.25,-2.81,2,6
1772722080.031164,970860,0.17,-0.17,0.21,-19.37,-69.37,246.75,5.81,5.94,-1.31,-0.02,-0.11,-0.17,149.56,-55.38,79.69,1.81,1.19,-2.31,2,5
1772722080.071942,970901,0.10,-0.11,0.24,-19.62,-69.56,246.81,3.25,2.56,-0.56,0.06,-0.16,-0.26,149.44,-55.19,79.94,-1.56,2.50,-2.81,2,5
1772722080.112272,970941,-0.11,-0.07,0.32,-19.69,-69.56,246.87,1.06,1.87,0.37,0.01,-0.08,-0.21,149.44,-55.00,80.06,-1.50,-0.13,-1.56,2,4
1772722080.152258,970981,-0.16,0.02,0.41,-19.87,-69.69,246.94,-0.44,7.00,1.00,-0.14,-0.02,-0.12,149.44,-55.00,80.00,-1.81,-0.94,-1.31,2,5
1772722080.191044,971020,-0.65,0.19,0.60,-20.31,-69.94,246.87,1.50,15.06,2.06,-0.06,0.00,-0.17,149.44,-54.94,79.94,-2.25,-0.19,-1.94,2,4
1772722080.231840,971061,-0.52,0.15,0.51,-21.31,-70.62,246.81,3.62,28.12,1.44,-0.15,-0.04,-0.13,149.44,-54.94,79.87,-0.13,0.50,-1.31,2,4
1772722080.272453,971101,-0.01,0.18,0.22,-23.00,-71.69,246.69,3.06,34.88,2.81,-0.04,-0.04,-0.17,149.44,-54.88,80.00,2.94,0.19,1.62,2,3
1772722080.312833,971142,0.41,0.17,-0.13,-25.19,-72.94,246.50,4.12,34.25,1.69,-0.05,-0.13,-0.10,149.37,-54.94,80.12,1.50,-1.81,0.06,2,3
1772722080.352740,971181,0.54,0.01,-0.38,-27.25,-74.00,246.50,4.87,26.69,-1.37,0.04,-0.11,-0.19,149.31,-54.94,80.06,-4.31,-1.44,-1.69,2,3
1772722080.392083,971221,0.57,-0.12,-0.39,-28.75,-74.81,246.56,4.62,16.94,-1.37,0.08,-0.07,-0.23,149.37,-54.94,79.81,-3.87,-2.50,0.31,3,3
1772722080.432637,971261,0.40,-0.16,-0.25,-29.75,-75.25,246.62,1.62,8.00,1.25,0.00,-0.10,-0.26,149.50,-55.00,79.56,-1.81,-2.25,2.75,2,3
1772722080.473459,971302,0.13,-0.08,-0.04,-30.37,-75.44,246.56,-3.00,3.12,2.44,-0.15,-0.10,-0.03,149.62,-55.13,79.25,-2.25,-3.19,3.94,2,3
1772722080.513591,971342,-0.35,0.10,0.19,-30.75,-75.50,246.31,-7.81,6.12,2.12,-0.25,-0.01,0.09,149.81,-55.31,78.87,-4.56,-3.50,2.50,2,4
1772722080.553161,971382,-0.15,0.16,0.10,-31.37,-75.75,245.94,-7.81,12.25,1.75,-0.26,0.05,-0.01,150.06,-55.50,78.37,-3.62,-2.37,2.87,2,3
1772722080.592526,971421,0.01,0.24,-0.02,-32.44,-76.12,245.62,-7.37,14.38,1.62,-0.16,0.07,-0.13,150.25,-55.63,78.06,-0.62,-1.69,4.25,3,3
1772722080.633059,971462,0.21,0.37,-0.15,-33.81,-76.50,245.25,-4.94,13.81,0.44,-0.12,0.08,-0.12,150.44,-55.75,77.81,0.88,-1.25,4.62,3,3
1772722080.673842,971503,0.24,0.29,-0.23,-35.38,-76.87,245.06,1.50,11.50,-2.37,-0.09,0.02,-0.15,150.62,-55.88,77.69,2.31,-1.69,4.56,3,2
1772722080.714098,971543,0.28,0.10,-0.25,-36.56,-77.25,245.12,5.31,7.94,-3.87,-0.05,0.02,-0.13,150.69,-56.00,77.69,3.06,-1.19,3.75,3,3
1772722080.753957,971583,0.22,-0.04,-0.26,-37.19,-77.56,245.44,7.31,5.06,-3.75,-0.12,0.02,-0.05,150.75,-56.13,77.69,2.94,-0.06,3.31,3,3
1772722080.793292,971622,0.20,-0.24,-0.26,-37.44,-77.81,245.81,6.62,2.00,-2.94,-0.03,0.02,-0.08,150.81,-56.19,77.75,2.75,-0.25,3.25,3,6
1772722080.833900,971663,0.04,-0.16,-0.20,-37.31,-78.00,246.12,4.06,0.06,-3.50,-0.21,0.03,-0.11,150.87,-56.25,77.75,1.25,-0.25,2.56,3,7
1772722080.874786,971704,0.04,-0.19,-0.15,-36.75,-78.12,246.44,2.62,-1.00,-3.81,-0.13,0.05,-0.08,150.94,-56.31,77.69,0.19,0.56,1.12,3,7
1772722080.915093,971744,0.11,-0.21,-0.13,-36.13,-78.25,246.62,1.62,-0.81,-2.44,-0.10,0.05,-0.05,151.00,-56.31,77.69,0.31,0.13,0.37,3,7
1772722080.955042,971784,0.11,-0.23,-0.14,-35.75,-78.31,246.81,0.75,-1.50,-1.31,-0.06,0.00,-0.14,151.00,-56.31,77.62,0.06,0.50,-0.94,3,7
1772722080.995260,971824,0.03,-0.17,0.01,-35.31,-78.25,246.87,-0.13,-3.44,0.19,-0.06,0.04,-0.11,150.94,-56.31,77.69,-0.06,-0.62,-1.12,3,6
1772722081.035588,971864,-0.06,-0.04,0.04,-34.94,-78.12,246.87,-1.25,-2.69,1.06,-0.13,0.05,-0.11,150.87,-56.31,77.69,-0.37,-1.06,-0.81,3,7
1772722081.075913,971905,-0.01,-0.04,0.02,-34.81,-78.06,246.75,-1.31,-1.87,1.37,-0.15,0.03,-0.06,150.81,-56.31,77.69,0.06,-0.94,-0.25,3,9
1772722081.115856,971945,0.00,0.04,0.04,-34.75,-77.94,246.69,-1.25,-1.12,1.37,-0.10,0.07,-0.05,150.81,-56.38,77.69,-0.06,-1.19,0.25,3,9
1772722081.155776,971985,0.11,0.03,-0.08,-34.88,-77.94,246.56,0.06,0.94,0.44,-0.07,0.00,-0.13,150.81,-56.38,77.62,-0.62,1.12,-0.50,3,8
1772722081.195762,972024,0.28,0.01,-0.09,-35.00,-77.94,246.56,0.31,-1.31,-0.62,0.05,-0.13,-0.20,150.87,-56.31,77.62,-1.56,0.88,-1.81,3,5
1772722081.236094,972065,0.18,-0.01,0.05,-34.56,-77.87,246.62,0.25,-4.56,-0.81,0.00,-0.15,-0.23,150.81,-56.25,77.62,-2.25,-1.06,-2.12,3,5
1772722081.276734,972105,-0.16,0.03,0.24,-34.00,-77.69,246.56,-0.31,-5.81,0.00,-0.18,-0.09,-0.16,150.81,-56.25,77.56,-2.81,-2.06,-1.19,2,5
1772722081.316711,972145,-0.28,0.15,0.32,-33.50,-77.56,246.69,-0.50,-1.94,-0.25,-0.08,0.00,0.00,150.81,-56.31,77.37,-3.12,-2.19,-0.25,3,5
1772722081.355902,972185,0.13,0.12,0.11,-33.50,-77.56,246.62,0.75,3.75,-0.81,0.00,-0.02,0.01,150.75,-56.38,77.25,-1.94,-3.50,-0.94,3,7
1772722081.395031,972224,0.21,0.05,0.03,-33.88,-77.69,246.62,0.56,3.19,0.62,0.06,0.06,-0.16,150.75,-56.44,77.06,-0.81,0.00,1.56,3,7
1772722081.436228,972265,0.01,0.22,-0.10,-34.25,-77.75,246.62,0.81,4.12,-1.12,-0.20,-0.05,-0.06,150.87,-56.50,76.94,1.25,-0.62,3.25,3,7
1772722081.476825,972306,0.19,0.10,-0.21,-34.63,-77.94,246.50,2.25,3.50,-2.62,-0.18,-0.04,-0.09,151.00,-56.56,76.87,0.56,-0.81,2.31,3,5
1772722081.517177,972346,0.38,-0.08,-0.26,-34.69,-78.06,246.75,3.87,0.75,-2.87,0.02,-0.03,-0.16,151.06,-56.56,76.81,0.37,0.31,0.75,3,6
1772722081.557395,972386,0.24,-0.19,-0.21,-34.44,-78.19,246.94,2.69,-3.00,-2.37,0.00,-0.01,-0.12,151.06,-56.56,76.87,0.75,0.00,0.37,3,7
1772722081.596720,972425,0.11,-0.19,0.00,-33.75,-78.12,247.12,0.75,-5.37,-1.44,-0.04,0.03,-0.06,151.06,-56.63,76.87,2.00,-0.62,0.75,3,7
1772722081.637008,972466,-0.12,-0.06,0.05,-33.06,-77.94,247.19,-0.31,-4.87,0.50,-0.30,0.05,0.03,151.06,-56.69,76.94,1.37,-0.56,1.62,4,7
1772722081.678071,972507,-0.08,-0.06,0.01,-32.69,-77.81,247.19,0.31,-1.00,-0.31,-0.21,-0.02,-0.10,151.06,-56.69,76.94,-0.25,0.69,-0.44,4,6
1772722081.718195,972547,0.12,-0.12,-0.11,-32.63,-77.81,247.19,-0.69,-1.19,-0.25,-0.07,0.00,-0.19,151.06,-56.63,76.94,-1.37,0.94,-1.25,4,6
1772722081.757713,972587,0.09,-0.08,0.01,-32.38,-77.75,247.12,-1.94,-2.87,0.06,-0.06,0.00,-0.09,151.12,-56.63,76.87,-1.44,-0.31,-1.25,5,5
1772722081.797382,972626,0.27,-0.16,-0.03,-32.00,-77.69,247.12,-2.25,-1.87,-0.62,0.06,-0.03,-0.10,151.06,-56.56,76.81,-2.12,-0.81,-2.87,4,5
1772722081.837737,972666,0.12,-0.14,0.03,-31.56,-77.62,247.06,-3.12,-4.56,1.31,-0.08,0.04,-0.16,151.06,-56.56,76.75,-2.12,0.06,-1.56,5,6
1772722081.878568,972707,-0.07,0.02,0.07,-31.25,-77.37,246.87,-3.44,-4.37,3.00,-0.11,0.03,-0.16,151.06,-56.50,76.69,0.75,-0.25,-0.13,5,7
1772722081.918828,972747,0.24,0.09,-0.14,-31.25,-77.19,246.69,-3.06,-3.87,3.12,-0.11,-0.02,-0.19,151.00,-56.50,76.81,1.81,-0.13,-0.06,4,6
1772722081.958959,972788,0.56,-0.06,-0.45,-31.06,-76.94,246.44,-2.69,-9.63,1.87,0.05,-0.08,-0.25,150.94,-56.50,76.87,0.13,0.81,-0.50,5,8
1772722081.998920,972827,0.68,-0.25,-0.60,-30.06,-76.50,246.31,-5.44,-21.69,2.87,-0.03,-0.01,-0.26,151.00,-56.44,76.87,-0.44,-0.37,0.88,4,8
1772722082.038940,972868,0.98,-0.28,-0.64,-28.25,-75.56,246.06,-11.06,-37.13,3.12,-0.15,0.09,-0.04,151.06,-56.44,76.87,1.19,-0.19,1.62,4,8
1772722082.079195,972908,-0.12,0.22,0.17,-25.19,-74.00,245.75,-16.00,-49.69,-0.25,-0.23,0.18,0.08,151.12,-56.50,76.87,3.12,0.25,1.31,5,8
1772722082.119473,972948,-0.85,0.40,0.69,-21.87,-72.37,245.56,-14.00,-38.94,-5.94,-0.40,0.21,0.22,151.06,-56.63,76.87,2.62,-0.13,1.31,5,8
1772722082.159178,972988,-0.95,0.41,0.72,-19.37,-71.31,245.56,-8.38,-17.81,-6.06,-0.22,0.00,0.04,151.06,-56.69,76.94,1.69,1.69,-1.06,4,7
1772722082.198327,973027,-0.60,0.32,0.53,-18.19,-71.00,245.62,0.25,-0.62,-4.37,-0.18,0.01,0.03,151.00,-56.63,77.06,0.00,2.37,-1.19,5,7
1772722082.238980,973068,0.00,0.18,0.11,-18.06,-71.12,245.87,6.75,6.12,-1.94,-0.02,-0.05,-0.11,151.06,-56.50,77.12,0.69,3.31,-1.37,4,6
1772722082.279714,973109,0.18,-0.11,0.00,-18.44,-71.37,246.12,7.87,4.44,-0.25,0.05,-0.13,-0.23,151.06,-56.38,77.31,0.75,2.19,-0.75,4,5
1772722082.319910,973149,0.05,-0.10,0.18,-18.81,-71.50,246.31,4.56,2.62,-0.19,0.03,-0.11,-0.22,151.06,-56.31,77.37,0.25,0.94,-0.94,5,5
1772722082.360090,973189,-0.16,-0.07,0.32,-18.94,-71.62,246.44,2.06,6.19,-0.88,0.01,-0.06,-0.16,151.00,-56.25,77.50,0.00,0.44,-0.88,5,3
1772722082.399410,973228,-0.36,0.04,0.49,-19.12,-71.87,246.50,1.87,12.69,-0.62,0.01,0.00,-0.16,151.00,-56.19,77.56,-0.13,1.69,-1.56,5,4
1772722082.439815,973269,-0.55,0.11,0.68,-19.87,-72.50,246.50,5.62,25.06,-0.13,-0.05,0.04,-0.24,151.00,-56.06,77.62,-1.12,0.25,-1.50,5,4
1772722082.480349,973309,0.12,-0.10,0.25,-21.50,-73.50,246.62,9.88,33.25,1.87,0.03,0.01,-0.27,151.00,-56.06,77.62,-0.56,1.31,-1.81,4,5
1772722082.520731,973350,0.47,-0.22,-0.22,-23.87,-74.62,246.75,9.69,28.87,2.62,-0.02,-0.03,-0.26,151.00,-55.94,77.69,0.13,-0.44,-1.44,4,4
1772722082.560569,973389,0.60,-0.38,-0.56,-26.00,-75.44,246.81,6.06,18.87,2.31,0.00,-0.07,-0.18,150.87,-55.88,77.75,0.69,-1.44,-1.06,4,5
1772722082.599947,973429,0.53,-0.30,-0.60,-27.50,-75.81,246.69,-1.69,4.06,6.12,-0.21,-0.01,-0.05,150.81,-55.94,77.81,2.12,-0.88,0.69,4,6
1772722082.640932,973469,0.25,-0.14,-0.51,-28.37,-75.87,246.37,-4.56,-1.56,5.87,0.00,-0.20,-0.20,150.75,-55.94,77.87,-0.69,-1.50,-1.06,4,6
1772722082.681544,973510,0.23,0.00,-0.14,-28.37,-75.62,246.06,-8.44,-5.94,2.69,-0.12,0.04,-0.13,150.69,-56.00,77.75,-5.37,-3.37,-2.06,4,5
1772722082.721748,973550,-0.09,0.20,0.12,-27.87,-75.37,245.75,-9.31,-6.75,1.94,-0.10,0.10,-0.11,150.75,-56.06,77.37,-5.31,-3.12,-1.75,3,5
1772722082.761464,973590,-0.19,0.23,0.22,-27.37,-75.12,245.44,-6.19,-2.56,1.06,-0.15,0.02,-0.05,150.75,-56.13,77.06,-3.81,-3.25,-1.00,3,4
1772722082.800759,973630,-0.09,0.23,0.21,-27.37,-75.06,245.25,-3.06,1.56,2.37,-0.17,0.03,-0.05,150.75,-56.25,76.81,-1.87,-2.06,0.69,3,7
1772722082.841024,973670,0.03,0.24,0.07,-27.81,-75.06,245.00,-1.12,2.19,2.37,-0.07,-0.02,-0.06,150.81,-56.31,76.69,0.00,-0.62,1.50,3,7
1772722082.881828,973711,0.10,0.21,-0.04,-28.37,-75.06,244.87,-0.81,3.19,1.62,-0.10,-0.06,-0.04,150.87,-56.38,76.62,1.19,0.44,1.37,3,6
1772722082.922256,973751,0.16,0.25,-0.10,-28.87,-75.12,244.81,-0.69,2.75,0.44,-0.11,-0.12,-0.07,150.94,-56.38,76.69,0.31,-0.62,0.50,3,6
1772722082.962664,973791,0.07,0.15,-0.07,-29.12,-75.19,244.69,0.50,1.19,-1.44,-0.10,-0.11,-0.07,150.87,-56.38,76.69,-0.62,-0.50,-0.25,3,5
1772722083.002474,973831,-0.02,0.09,-0.02,-29.12,-75.25,244.75,0.50,1.50,-1.44,-0.15,-0.06,-0.03,150.87,-56.38,76.62,-0.37,-1.12,0.44,3,6
1772722083.042290,973871,0.03,0.04,-0.04,-29.19,-75.37,244.81,0.69,1.50,-0.19,-0.09,-0.03,-0.08,150.87,-56.44,76.62,0.44,0.00,0.69,3,6
1772722083.082927,973912,0.07,0.09,-0.08,-29.31,-75.37,244.81,0.81,-0.06,-0.44,-0.10,0.00,-0.06,150.94,-56.44,76.56,0.62,-0.62,1.12,3,7
1772722083.123190,973952,-0.01,0.06,-0.07,-29.37,-75.37,244.87,1.62,0.62,-0.62,-0.15,-0.03,-0.04,150.94,-56.44,76.56,0.37,-0.19,1.31,3,7
1772722083.162864,973992,0.12,0.00,-0.13,-29.44,-75.44,245.00,0.94,0.56,-0.62,-0.05,0.09,-0.14,151.00,-56.50,76.56,0.06,0.94,1.19,3,8
1772722083.202323,974031,0.06,0.03,-0.10,-29.31,-75.44,245.06,0.75,-1.00,-2.06,-0.12,-0.02,-0.13,151.12,-56.50,76.50,-1.06,1.62,0.75,2,5
1772722083.242744,974072,0.01,0.00,-0.03,-28.94,-75.44,245.19,1.19,-1.62,-2.31,-0.06,0.03,-0.13,151.19,-56.44,76.44,-0.06,-0.19,0.94,2,5
1772722083.283411,974112,0.03,-0.06,0.00,-28.62,-75.44,245.31,2.62,-1.31,-2.50,-0.05,0.04,-0.15,151.25,-56.44,76.37,0.37,-0.31,0.56,2,5
1772722083.323553,974153,0.08,-0.13,-0.04,-28.31,-75.44,245.50,3.37,-1.06,-2.00,-0.06,0.03,-0.15,151.25,-56.44,76.37,0.56,0.25,0.19,2,4
1772722083.363943,974193,-0.03,-0.13,0.00,-28.06,-75.44,245.81,2.69,-1.06,-1.12,-0.09,0.03,-0.10,151.25,-56.44,76.44,1.31,-0.06,-0.06,2,6
1772722083.403642,974232,0.00,-0.13,0.02,-27.94,-75.44,245.94,1.87,-0.19,-0.88,-0.09,-0.01,-0.11,151.19,-56.44,76.50,0.62,-0.25,-0.69,2,5
1772722083.444018,974273,0.00,-0.19,0.03,-27.87,-75.44,246.00,1.00,0.37,0.31,-0.08,-0.01,-0.09,151.12,-56.44,76.50,0.00,-0.62,-0.69,2,4
1772722083.484008,974313,0.01,-0.10,0.00,-27.87,-75.44,246.00,-0.44,1.12,1.37,-0.08,0.03,-0.12,151.12,-56.50,76.56,0.31,-1.12,-0.56,1,4
1772722083.524190,974353,0.02,-0.01,0.01,-28.12,-75.50,245.94,-1.19,1.62,1.50,-0.10,0.01,-0.12,151.06,-56.50,76.50,0.06,-0.94,-0.94,1,4
1772722083.564570,974393,0.07,0.00,-0.06,-28.44,-75.50,245.87,-0.81,2.25,1.87,-0.05,-0.02,-0.10,151.00,-56.50,76.56,0.00,-1.31,-1.06,1,4
1772722083.603660,974433,0.08,0.01,-0.04,-28.81,-75.56,245.81,-0.31,1.62,2.12,-0.09,-0.02,-0.12,150.87,-56.56,76.56,0.37,-1.37,-0.81,2,5
1772722083.644313,974473,0.10,0.06,-0.07,-29.19,-75.56,245.75,-0.25,0.56,1.69,-0.04,-0.02,-0.10,150.81,-56.56,76.56,0.25,-1.75,-0.94,2,5
1772722083.684935,974514,0.09,0.03,-0.07,-29.37,-75.50,245.69,-0.31,-0.13,1.75,-0.07,0.00,-0.10,150.69,-56.63,76.56,0.31,-1.25,-0.88,2,5
1772722083.725306,974554,0.06,0.01,-0.09,-29.62,-75.50,245.62,-0.44,-0.19,1.12,-0.14,-0.06,-0.04,150.62,-56.63,76.56,-0.56,-0.94,-1.06,2,5
1772722083.765173,974594,0.02,0.10,-0.13,-29.75,-75.50,245.50,-1.44,-0.50,1.87,-0.13,0.01,-0.11,150.56,-56.63,76.62,0.62,-1.37,0.00,2,4
1772722083.805327,974634,0.08,0.14,-0.10,-29.87,-75.44,245.44,-1.00,-0.44,0.25,-0.04,-0.04,-0.12,150.56,-56.63,76.62,-0.31,0.37,-0.88,2,5
1772722083.845465,974674,0.08,0.11,-0.03,-29.87,-75.44,245.37,0.37,-2.12,0.13,-0.13,-0.04,-0.03,150.50,-56.63,76.62,0.06,-0.50,-0.37,2,5
1772722083.885639,974715,0.04,0.05,-0.02,-29.81,-75.37,245.44,0.69,-1.50,0.19,-0.09,-0.02,-0.06,150.50,-56.63,76.62,0.25,-0.44,-0.06,2,5
1772722083.925742,974755,0.02,0.05,0.00,-29.75,-75.31,245.44,-0.37,-0.37,-0.37,-0.11,-0.05,-0.06,150.50,-56.63,76.62,0.06,0.06,-0.13,2,5
1772722083.966199,974795,0.04,0.06,-0.03,-29.75,-75.31,245.37,-1.12,-1.00,-0.37,-0.12,-0.07,-0.09,150.50,-56.63,76.62,-0.13,0.00,0.44,2,4
1772722084.006096,974835,0.01,0.11,0.02,-29.62,-75.25,245.44,-0.56,-0.50,-0.81,-0.10,-0.03,-0.09,150.50,-56.63,76.62,-0.19,0.44,0.44,1,3
1772722084.046873,974875,0.05,0.02,0.02,-29.50,-75.31,245.44,-0.13,-0.62,-0.44,-0.08,-0.02,-0.09,150.50,-56.69,76.62,-0.13,0.50,0.62,1,3
1772722084.086801,974915,0.09,-0.02,-0.08,-29.44,-75.25,245.50,0.13,-0.88,-0.62,-0.06,-0.02,-0.15,150.56,-56.69,76.56,-0.37,0.62,0.81,1,3
1772722084.126744,974955,0.20,-0.06,-0.18,-29.25,-75.25,245.50,-1.12,-2.69,-0.81,-0.03,-0.03,-0.20,150.56,-56.69,76.56,-0.19,0.25,1.06,1,3
1772722084.166618,974995,0.30,-0.12,-0.33,-28.81,-75.12,245.50,-2.56,-6.69,-0.13,-0.06,-0.02,-0.16,150.62,-56.69,76.50,0.00,-0.06,1.25,1,3
1772722084.206367,975035,0.47,-0.14,-0.48,-28.25,-74.87,245.44,-4.31,-13.75,1.44,-0.03,0.00,-0.15,150.69,-56.75,76.44,0.06,0.13,0.94,1,4
1772722084.246907,975076,0.57,-0.03,-0.41,-27.06,-74.25,245.31,-6.44,-26.62,1.50,-0.14,-0.02,-0.07,150.75,-56.75,76.44,0.94,-0.44,0.62,2,4
1772722084.287132,975116,-0.01,0.15,-0.11,-25.25,-73.19,245.19,-8.63,-34.25,1.87,-0.23,0.11,0.02,150.75,-56.75,76.50,2.69,0.44,1.56,2,4
1772722084.327361,975156,-0.54,0.22,0.25,-23.37,-72.00,245.06,-6.37,-27.00,-1.56,-0.35,0.11,0.11,150.69,-56.81,76.56,0.88,-0.44,-0.06,2,4
1772722084.366897,975196,-0.41,0.26,0.21,-22.00,-71.25,245.06,-3.19,-15.88,-1.06,-0.36,0.06,0.05,150.69,-56.81,76.62,0.62,1.37,-0.37,2,4
1772722084.406254,975235,-0.39,0.28,0.19,-21.25,-70.81,245.12,0.81,-7.62,-2.94,-0.19,0.04,0.00,150.75,-56.75,76.62,0.25,3.69,-1.69,2,4
1772722084.446962,975276,-0.05,0.07,0.13,-20.81,-70.62,245.31,3.25,-2.81,-3.75,-0.06,0.09,-0.09,150.69,-56.63,76.75,1.31,2.50,-2.37,3,5
1772722084.487735,975317,0.08,-0.09,0.16,-20.56,-70.69,245.62,4.94,-0.75,-3.50,0.04,-0.08,-0.17,150.62,-56.56,76.94,0.81,1.37,-0.94,3,5
1772722084.527809,975357,-0.06,-0.06,0.30,-20.37,-70.69,245.87,4.12,0.19,-2.19,0.01,-0.03,-0.22,150.62,-56.44,77.06,0.69,0.44,-0.06,3,4
1772722084.567732,975397,-0.04,-0.02,0.32,-20.31,-70.69,246.06,3.56,3.25,-0.88,-0.01,-0.05,-0.25,150.62,-56.38,77.19,1.81,1.12,0.44,3,4
1772722084.606951,975436,-0.05,0.02,0.37,-20.44,-70.81,246.19,4.37,5.25,-1.75,0.05,-0.09,-0.27,150.62,-56.31,77.31,1.31,1.00,-0.19,3,2
1772722084.647754,975477,-0.20,0.02,0.40,-20.62,-71.00,246.37,6.44,9.50,-0.62,-0.05,-0.01,-0.16,150.56,-56.25,77.44,1.44,-1.25,0.75,2,2
1772722084.688250,975517,-0.04,0.01,0.20,-21.31,-71.37,246.56,8.00,14.06,0.37,-0.05,-0.14,-0.16,150.56,-56.31,77.50,2.62,-0.13,1.12,2,2
1772722084.728383,975558,0.21,-0.04,-0.13,-22.37,-71.87,246.69,7.69,14.56,2.44,-0.06,0.02,-0.16,150.56,-56.31,77.62,2.69,1.44,2.25,2,1
1772722084.767897,975597,0.36,0.02,-0.36,-23.50,-72.25,246.69,4.50,8.56,2.06,0.00,-0.04,-0.16,150.56,-56.31,77.75,3.25,0.75,2.06,3,1
1772722084.808289,975637,0.25,0.01,-0.25,-24.06,-72.50,246.75,2.69,4.12,-2.44,-0.06,0.00,-0.17,150.62,-56.31,77.87,0.00,-0.25,0.56,3,2
1772722084.849074,975678,-0.11,-0.06,0.03,-24.00,-72.69,246.94,1.75,6.25,-4.87,-0.07,-0.01,-0.08,150.62,-56.31,77.81,-2.56,-0.31,-1.00,3,2
1772722084.889557,975718,-0.23,-0.10,0.16,-23.94,-73.06,247.19,3.81,11.88,-4.25,-0.14,0.03,-0.14,150.69,-56.25,77.62,-4.00,-1.69,-3.06,2,2
1772722084.929418,975758,0.03,-0.20,0.05,-24.37,-73.62,247.44,6.62,15.06,-1.25,-0.07,-0.08,-0.22,150.62,-56.25,77.50,-5.00,-1.62,-4.31,3,3
1772722084.969214,975798,0.24,-0.26,-0.10,-25.44,-74.12,247.56,5.00,11.00,2.06,0.07,-0.31,-0.26,150.56,-56.19,77.25,-6.69,-3.06,-2.62,3,3
1772722085.008652,975838,0.29,-0.26,-0.12,-26.31,-74.37,247.56,0.56,4.87,2.87,-0.09,0.04,-0.17,150.69,-56.25,76.81,-8.44,-5.06,-0.37,3,3
1772722085.049260,975878,0.18,-0.08,-0.19,-26.81,-74.44,247.37,-5.25,1.75,4.19,-0.06,0.13,-0.04,150.81,-56.44,76.31,-3.19,-4.50,1.37,3,3
1772722085.089844,975919,0.05,0.21,-0.22,-27.19,-74.44,247.06,-6.75,1.87,2.87,-0.20,-0.01,0.07,150.87,-56.63,76.00,0.88,-2.69,2.69,3,3
1772722085.130177,975959,0.03,0.25,-0.25,-27.44,-74.50,246.75,-5.69,1.06,2.50,-0.24,-0.11,0.06,150.94,-56.75,75.87,-0.56,-1.62,2.31,2,3
1772722085.169833,975999,-0.12,0.25,-0.19,-27.94,-74.50,246.44,-4.75,0.50,2.12,-0.18,0.00,0.02,151.00,-56.81,75.75,-0.75,-0.88,1.31,2,3
1772722085.209961,976039,-0.11,0.21,-0.16,-28.37,-74.50,246.19,-2.56,2.94,1.25,-0.20,0.00,0.05,151.06,-56.88,75.62,-0.75,-1.25,0.94,2,4
1772722085.250076,976079,0.00,0.08,-0.21,-28.94,-74.62,246.00,-0.13,5.06,2.25,-0.17,-0.02,-0.01,151.06,-57.00,75.56,0.25,-0.88,0.88,2,3
1772722085.290633,976120,-0.05,0.03,0.03,-29.69,-74.75,245.87,1.12,3.62,3.56,-0.26,0.04,-0.05,151.12,-57.00,75.44,-0.62,-1.56,2.19,2,3
1772722085.331006,976160,-0.04,-0.06,0.01,-30.50,-74.81,245.75,0.37,6.69,3.69,-0.05,-0.02,-0.06,151.25,-57.13,75.25,-0.50,0.31,1.19,2,3
1772722085.370894,976200,0.24,-0.16,-0.16,-31.44,-75.00,245.62,-2.00,8.13,1.56,0.09,0.00,-0.16,151.31,-57.13,75.25,-0.37,0.81,1.81,2,3
1772722085.409830,976239,0.22,-0.13,-0.12,-31.94,-75.25,245.44,-5.31,5.06,0.44,0.00,0.02,-0.16,151.50,-57.13,75.12,-2.12,0.81,1.87,1,3
1772722085.450666,976280,0.15,-0.09,-0.04,-32.00,-75.37,245.25,-6.81,2.75,-0.37,0.04,0.06,-0.23,151.69,-57.13,74.94,-1.00,0.88,1.25,1,3
1772722085.491388,976320,0.08,0.03,0.06,-31.94,-75.50,245.06,-4.81,1.56,-0.31,-0.04,0.05,-0.19,151.81,-57.06,74.87,-0.44,0.13,1.00,2,3
1772722085.531575,976360,-0.06,-0.04,0.12,-31.94,-75.50,244.94,-0.81,1.44,0.44,-0.08,-0.01,-0.18,151.94,-57.06,74.81,-0.94,-0.69,0.13,2,3
1772722085.571751,976401,-0.05,-0.10,0.03,-32.13,-75.56,244.87,0.25,2.50,2.50,-0.13,0.05,-0.13,151.94,-57.13,74.75,-1.19,-1.31,-0.06,1,4
1772722085.611267,976440,0.06,-0.11,-0.10,-32.56,-75.56,244.81,-0.75,2.12,1.81,-0.06,-0.01,-0.13,151.94,-57.13,74.62,-0.88,-1.44,-0.94,1,3
1772722085.651229,976480,0.00,-0.09,-0.05,-32.94,-75.62,244.69,-2.62,2.31,2.69,-0.08,0.00,0.00,151.87,-57.19,74.62,0.13,-2.81,-0.62,1,3
1772722085.692132,976521,0.09,0.04,-0.14,-33.44,-75.62,244.44,-2.75,2.69,3.37,-0.17,0.00,-0.03,151.75,-57.31,74.56,-0.81,-2.00,-1.19,1,3
1772722085.732208,976561,0.07,0.02,-0.15,-34.06,-75.62,244.25,-2.19,2.25,3.44,-0.11,0.00,-0.14,151.69,-57.31,74.56,-0.06,-1.06,-1.06,1,7
1772722085.772405,976601,0.12,0.08,-0.14,-34.56,-75.69,244.00,-2.81,1.94,3.62,-0.13,-0.03,-0.04,151.56,-57.31,74.56,0.75,-0.56,-0.06,1,7
1772722085.811791,976641,-0.02,0.15,-0.14,-35.13,-75.62,243.75,-3.12,2.56,3.19,-0.05,-0.01,0.00,151.56,-57.31,74.62,1.69,-0.25,0.69,1,6
1772722085.852039,976681,0.06,0.16,-0.15,-35.69,-75.69,243.56,-2.75,2.62,1.12,-0.13,0.02,-0.06,151.56,-57.38,74.62,-1.06,-0.31,0.06,1,7
1772722085.892638,976722,0.06,0.17,-0.05,-36.06,-75.75,243.37,-2.25,3.56,-0.44,-0.14,0.00,-0.20,151.56,-57.38,74.62,-0.31,0.13,-0.81,1,7
1772722085.932896,976762,0.12,0.22,0.02,-36.38,-75.87,243.31,-0.88,3.12,-1.62,-0.12,0.00,-0.10,151.56,-57.38,74.56,-0.13,-0.31,-0.56,1,7
1772722085.972418,976802,0.13,0.06,-0.02,-36.44,-76.00,243.37,0.88,3.69,-2.81,-0.16,0.03,0.00,151.50,-57.38,74.69,1.94,0.19,-1.56,1,6
1772722086.011951,976841,0.22,0.12,-0.13,-36.63,-76.19,243.44,1.94,3.50,-1.81,-0.01,-0.13,-0.03,151.31,-57.31,74.87,2.00,0.37,-1.25,2,6
1772722086.052456,976882,0.01,0.07,-0.15,-36.81,-76.31,243.56,3.25,1.19,-2.31,-0.22,-0.05,0.00,151.25,-57.31,75.00,1.06,-0.06,0.37,1,6
1772722086.093401,976922,0.02,-0.01,-0.09,-36.88,-76.37,243.75,4.81,2.69,-0.25,-0.09,-0.03,-0.03,151.19,-57.31,75.06,0.62,1.25,0.44,2,7
1772722086.133273,976963,0.08,0.00,-0.13,-37.50,-76.50,243.87,5.12,2.31,1.44,0.02,-0.08,-0.09,151.25,-57.25,75.06,0.94,1.12,1.50,2,3
1772722086.173098,977002,0.01,-0.08,-0.13,-38.13,-76.56,244.00,5.12,1.94,0.06,0.01,-0.04,-0.19,151.37,-57.25,75.12,0.75,1.50,2.06,2,3
1772722086.212845,977042,0.13,-0.18,-0.05,-38.44,-76.62,244.19,3.19,2.25,-1.69,-0.10,-0.06,-0.18,151.50,-57.19,75.06,-0.25,1.19,1.56,2,3
1772722086.253547,977082,0.14,-0.15,-0.05,-38.31,-76.69,244.31,0.75,-1.25,-0.94,-0.07,0.00,-0.21,151.62,-57.19,75.00,-0.75,0.75,0.81,2,3
1772722086.294141,977123,0.32,-0.20,-0.24,-37.88,-76.62,244.31,-2.69,-7.06,-0.25,0.00,0.00,-0.24,151.69,-57.19,75.00,-0.37,0.44,0.69,2,3
1772722086.334553,977163,0.46,-0.16,-0.44,-36.88,-76.37,244.31,-4.69,-12.44,-0.31,-0.06,0.11,-0.21,151.75,-57.19,74.94,0.13,-0.25,-0.06,3,3
1772722086.374279,977203,0.65,-0.01,-0.57,-35.31,-76.00,244.19,-7.19,-23.00,-0.56,-0.16,0.03,-0.17,151.75,-57.19,75.00,1.50,-0.50,-0.31,2,3
1772722086.413427,977242,0.59,0.04,-0.58,-32.69,-75.12,244.12,-8.31,-35.63,-2.87,-0.07,0.08,-0.21,151.69,-57.19,75.06,0.06,0.00,-2.12,2,2
1772722086.454083,977283,0.59,0.11,-0.36,-29.25,-73.94,244.19,-7.94,-43.94,-5.37,-0.10,0.06,0.06,151.56,-57.19,75.12,0.44,-3.25,-1.06,2,2
1772722086.494954,977324,-1.09,0.14,0.69,-25.19,-72.37,244.37,-6.62,-46.00,-9.63,-0.40,0.11,0.23,151.37,-57.25,75.19,1.25,-0.94,-0.69,1,2
1772722086.534999,977364,-0.62,0.05,0.58,-22.12,-71.25,244.81,-3.69,-21.62,-8.88,-0.42,0.14,0.19,151.31,-57.38,75.12,0.37,3.44,-1.31,2,2
1772722086.575021,977404,-0.45,0.13,0.28,-20.75,-70.81,245.06,0.00,-6.44,-2.94,-0.09,-0.07,-0.01,151.37,-57.25,75.25,1.56,4.62,-2.25,2,2
1772722086.614098,977443,-0.05,0.14,0.22,-20.50,-70.69,245.25,5.12,-3.87,0.06,0.04,-0.20,-0.24,151.37,-57.06,75.44,-0.50,3.00,-0.13,2,3
1772722086.654853,977484,-0.08,0.08,0.32,-20.62,-70.56,245.44,5.31,-1.12,-0.56,-0.08,0.02,-0.12,151.44,-57.00,75.50,0.06,2.50,-0.37,2,4
1772722086.695420,977524,-0.05,0.03,0.29,-20.62,-70.50,245.62,3.94,1.62,-3.25,0.03,-0.03,-0.19,151.44,-56.88,75.56,0.44,2.31,-1.56,2,4
1772722086.735546,977565,0.09,-0.11,0.09,-20.50,-70.62,245.94,4.25,2.75,-2.94,0.10,-0.21,-0.28,151.44,-56.75,75.75,0.19,2.06,-1.56,2,4
1772722086.775782,977605,0.27,-0.17,0.17,-20.44,-70.75,246.25,4.25,1.94,-1.06,0.05,-0.08,-0.28,151.44,-56.63,75.87,0.06,1.31,-0.06,2,4
1772722086.815939,977645,-0.23,-0.09,0.34,-20.50,-70.75,246.37,2.62,-0.56,-1.12,-0.12,0.00,-0.17,151.44,-56.50,75.94,-0.31,-0.44,0.75,2,4
1772722086.855954,977685,-0.20,-0.06,0.32,-20.44,-70.81,246.50,2.06,5.31,-1.12,-0.01,0.00,-0.14,151.50,-56.50,75.87,0.37,0.25,-0.19,2,4
1772722086.896378,977725,0.09,-0.18,0.11,-20.69,-71.06,246.56,3.31,9.56,-0.62,-0.07,0.04,-0.13,151.50,-56.50,75.87,-1.06,-0.94,-0.31,3,5
1772722086.936648,977766,0.03,-0.24,0.06,-21.06,-71.44,246.69,3.62,10.50,0.69,-0.04,-0.01,-0.21,151.56,-56.56,75.81,-0.62,-2.12,0.06,3,5
1772722086.976294,977805,-0.15,-0.15,0.04,-21.62,-71.75,246.69,0.88,11.13,2.87,-0.19,0.02,-0.06,151.50,-56.63,75.69,-0.25,-3.37,1.50,3,5
1772722087.016283,977845,-0.41,0.11,0.13,-22.56,-72.19,246.62,1.37,17.25,3.25,-0.11,0.09,0.00,151.50,-56.75,75.56,-0.44,-1.12,0.31,3,5
1772722087.056542,977886,-0.21,0.15,0.07,-23.94,-72.81,246.50,3.94,24.56,2.81,-0.08,-0.09,-0.18,151.50,-56.81,75.56,0.25,0.13,-0.31,4,5
1772722087.096773,977926,0.19,0.09,-0.07,-25.94,-73.69,246.44,5.00,26.06,3.81,0.06,-0.12,-0.18,151.50,-56.81,75.56,1.25,0.31,1.12,4,5
1772722087.136745,977966,0.37,0.09,-0.37,-28.19,-74.50,246.31,3.44,22.37,3.75,-0.18,0.08,-0.07,151.50,-56.88,75.62,5.06,0.69,2.56,5,5
1772722087.176639,978006,0.67,0.14,-0.64,-30.00,-75.06,246.25,0.88,12.69,1.62,-0.02,-0.18,-0.13,151.44,-56.81,75.87,3.50,0.50,2.06,5,5
1772722087.216102,978045,0.47,0.13,-0.50,-30.75,-75.37,246.25,-0.06,4.00,-3.06,0.00,-0.11,-0.17,151.44,-56.81,76.06,1.44,-0.25,1.62,5,5
1772722087.257122,978086,0.44,0.00,-0.35,-30.56,-75.56,246.37,-0.94,-2.31,-5.87,-0.09,-0.12,-0.16,151.50,-56.88,76.00,-1.25,-0.56,1.31,5,5
1772722087.297865,978127,0.22,-0.17,-0.02,-29.06,-75.50,246.62,-3.19,-10.19,-8.44,0.03,-0.06,-0.12,151.56,-56.88,75.87,-3.81,-1.12,-0.75,5,5
1772722087.338352,978167,-0.21,-0.27,0.32,-27.19,-75.31,246.81,-3.50,-7.62,-6.19,-0.06,-0.23,-0.12,151.62,-56.88,75.62,-6.37,-2.62,-1.00,5,4
1772722087.377805,978207,-0.25,-0.26,0.47,-26.12,-75.19,246.87,-6.00,-1.50,-0.50,-0.04,-0.08,-0.10,151.81,-56.94,75.12,-8.63,-3.62,1.62,5,4
1772722087.416961,978246,-0.28,-0.12,0.48,-25.94,-75.19,246.62,-9.63,6.12,1.94,-0.18,0.30,-0.05,152.12,-57.13,74.44,-6.25,-2.94,3.94,5,4
1772722087.457357,978287,-0.18,0.30,0.19,-26.25,-75.44,246.31,-7.31,13.19,0.31,-0.10,0.12,-0.04,152.50,-57.25,74.00,-1.62,0.06,4.06,4,3
1772722087.498215,978327,0.02,0.33,-0.08,-27.00,-75.94,246.06,-2.12,13.63,0.31,-0.07,0.06,-0.13,152.75,-57.31,73.75,-0.44,-0.81,2.75,4,4
1772722087.538411,978368,0.14,0.16,-0.21,-27.87,-76.37,246.06,2.75,11.56,-1.62,-0.11,0.08,-0.09,152.87,-57.44,73.62,-0.56,-1.44,1.00,4,4
1772722087.578311,978407,0.21,-0.04,-0.30,-28.75,-76.81,246.25,4.56,9.25,-3.31,-0.10,0.09,-0.11,152.87,-57.50,73.56,-0.25,-1.50,-0.31,4,4
1772722087.617641,978446,0.21,-0.11,-0.36,-29.12,-77.19,246.56,4.75,4.19,-2.94,-0.10,0.00,-0.18,152.81,-57.56,73.56,0.25,-2.37,-0.13,4,5
1772722087.658028,978487,0.06,-0.18,-0.21,-29.06,-77.44,246.81,2.87,2.44,-2.94,-0.11,0.00,-0.08,152.75,-57.63,73.50,0.00,-2.81,0.37,4,6
1772722087.698988,978528,0.00,-0.16,-0.10,-29.00,-77.62,247.06,0.69,3.87,-1.12,-0.12,0.04,0.00,152.69,-57.69,73.44,0.56,-1.75,0.44,4,6
1772722087.739195,978568,0.19,-0.06,-0.18,-29.25,-77.81,247.19,-0.62,2.94,1.12,-0.11,0.04,0.00,152.62,-57.75,73.44,-0.13,-0.62,0.19,4,7
1772722087.779292,978608,-0.04,0.03,-0.06,-29.69,-77.87,247.06,0.06,2.31,1.37,-0.07,0.04,-0.06,152.62,-57.75,73.44,-0.37,0.00,-0.56,4,7
1772722087.818639,978648,0.07,-0.01,-0.09,-30.25,-77.94,247.06,0.62,4.75,1.19,-0.10,0.00,-0.11,152.62,-57.75,73.44,-0.69,0.19,-1.44,4,8
1772722087.858939,978688,0.08,0.01,-0.08,-30.81,-78.06,247.00,1.25,2.12,2.81,-0.07,0.00,-0.12,152.56,-57.75,73.44,-0.62,0.00,-1.31,4,7
1772722087.899475,978729,0.03,0.00,0.03,-31.56,-78.06,246.94,1.94,3.06,3.12,-0.08,0.03,-0.07,152.56,-57.69,73.44,0.56,-0.31,-0.62,4,7
1772722087.939754,978769,0.10,-0.03,-0.04,-32.44,-78.12,246.87,1.50,3.69,2.19,-0.11,0.00,-0.13,152.50,-57.69,73.50,0.31,-0.13,-0.56,3,6
1772722087.979639,978809,0.18,0.00,-0.14,-33.13,-78.19,246.81,1.12,2.06,1.62,-0.08,-0.06,-0.18,152.50,-57.69,73.56,0.25,0.75,-0.62,3,6
1772722088.019662,978849,0.26,-0.06,-0.04,-33.56,-78.19,246.87,0.19,0.00,1.44,0.09,-0.04,-0.22,152.44,-57.63,73.56,0.62,1.25,-1.25,3,6
1772722088.060388,978889,0.09,0.03,0.00,-33.69,-78.12,246.81,-0.37,-3.94,1.75,-0.06,-0.12,-0.14,152.37,-57.63,73.69,0.31,-0.06,-0.94,3,5
1772722088.100951,978930,-0.02,-0.01,0.13,-33.56,-77.94,246.75,-0.62,-4.00,2.12,-0.07,-0.02,-0.07,152.37,-57.56,73.69,0.56,-1.31,-0.19,3,6
1772722088.140640,978970,-0.01,0.08,0.14,-33.50,-77.81,246.69,-0.81,-1.25,1.81,-0.07,0.07,0.03,152.31,-57.63,73.69,1.25,-2.12,1.00,3,5
1772722088.180392,979009,-0.01,0.07,-0.09,-33.69,-77.75,246.56,-0.62,2.62,1.50,-0.23,0.03,0.00,152.25,-57.75,73.69,0.50,-1.12,0.56,3,5
1772722088.220485,979050,0.11,0.04,-0.18,-34.25,-77.87,246.50,-0.50,4.56,0.44,-0.09,0.00,-0.18,152.25,-57.75,73.69,0.50,0.81,-0.75,3,5
1772722088.260979,979090,0.20,0.02,-0.19,-34.75,-78.00,246.44,-0.13,0.56,1.62,-0.10,-0.03,-0.18,152.19,-57.69,73.75,1.12,0.62,-0.62,3,6
1772722088.301323,979130,0.17,0.06,-0.06,-35.00,-77.94,246.31,1.75,-1.75,1.37,-0.08,-0.03,-0.13,152.12,-57.69,73.87,1.06,0.13,-1.62,3,6
1772722088.341307,979170,0.28,0.05,-0.13,-35.13,-77.81,246.37,2.62,-3.44,1.44,0.01,-0.03,-0.14,152.00,-57.63,74.00,1.19,0.44,-1.50,3,6
1772722088.381476,979211,0.20,0.02,-0.19,-35.00,-77.62,246.31,1.81,-7.50,1.19,-0.09,0.01,-0.10,151.87,-57.63,74.12,0.88,-0.62,-0.13,3,6
1772722088.421757,979251,0.26,-0.05,-0.37,-34.38,-77.37,246.37,-0.81,-10.06,-0.81,-0.09,-0.06,-0.15,151.87,-57.63,74.12,0.94,0.44,-0.50,3,5
1772722088.462091,979291,0.74,-0.18,-0.64,-33.19,-77.06,246.37,-4.25,-17.87,-0.62,-0.15,-0.01,-0.15,151.81,-57.63,74.19,1.37,0.31,-0.31,3,5
1772722088.502215,979331,0.61,0.01,-0.51,-30.87,-76.31,246.25,-7.62,-35.38,-0.13,-0.10,-0.08,-0.08,151.75,-57.63,74.31,2.12,0.75,0.31,3,3
1772722088.542291,979371,-0.07,0.11,0.00,-27.50,-74.94,246.19,-7.87,-45.13,-2.06,-0.15,0.03,-0.14,151.69,-57.63,74.44,2.00,-0.13,0.13,3,4
1772722088.581949,979411,-0.46,0.27,0.39,-24.19,-73.44,246.25,-5.75,-40.56,-4.06,-0.20,0.02,0.07,151.62,-57.63,74.56,2.31,-0.88,0.25,3,3
1772722088.621186,979450,-0.57,0.23,0.63,-21.75,-72.25,246.44,-0.31,-25.69,-5.44,-0.15,0.05,0.11,151.56,-57.63,74.69,1.31,0.06,-1.00,3,4
1772722088.662000,979491,-0.32,0.02,0.48,-20.44,-71.56,246.75,4.75,-10.69,-2.44,-0.06,-0.03,-0.03,151.44,-57.63,74.75,0.37,1.44,-1.56,3,4
1772722088.702808,979532,-0.26,-0.08,0.28,-20.12,-71.31,246.94,6.06,-2.62,-1.37,-0.05,-0.05,-0.19,151.44,-57.56,74.81,-0.56,2.69,-1.25,3,5
1772722088.742637,979572,0.00,-0.14,0.25,-20.06,-71.25,247.12,4.12,2.31,-0.94,-0.02,-0.01,-0.27,151.50,-57.44,74.87,-0.50,2.31,-0.50,3,5
1772722088.782538,979612,-0.06,-0.04,0.31,-20.06,-71.37,247.25,0.94,4.75,-1.50,0.06,0.00,-0.26,151.56,-57.38,74.87,-1.00,1.69,-0.94,4,7
1772722088.822873,979652,-0.02,-0.01,0.26,-20.00,-71.56,247.31,0.50,7.69,-2.87,0.12,-0.04,-0.18,151.62,-57.25,74.87,-0.75,0.00,-1.00,4,7
1772722088.863064,979692,-0.11,0.00,0.36,-20.06,-71.87,247.44,3.56,12.13,-2.50,0.07,-0.06,-0.15,151.62,-57.19,74.87,-0.75,-1.44,0.19,4,10
1772722088.903274,979732,-0.33,0.10,0.33,-20.56,-72.31,247.56,6.06,16.94,-0.13,-0.21,0.02,-0.09,151.62,-57.25,74.81,-1.94,-2.75,0.13,4,10
1772722088.943677,979773,-0.46,-0.04,0.20,-21.62,-73.00,247.69,8.50,23.25,-0.50,-0.27,0.10,-0.08,151.56,-57.38,74.62,-3.31,-2.31,-2.06,4,10
1772722088.983382,979812,-0.05,-0.01,-0.05,-23.31,-73.94,247.94,9.50,30.87,1.50,0.01,0.03,-0.24,151.56,-57.38,74.50,-0.62,0.00,-1.00,4,10
1772722089.022372,979852,0.16,0.07,-0.15,-25.87,-75.00,248.00,11.25,29.81,4.62,0.08,-0.03,-0.21,151.56,-57.31,74.56,2.56,-0.81,1.31,4,8
1772722089.062955,979892,0.75,0.05,-0.37,-28.87,-75.81,248.06,11.44,22.87,5.00,0.08,-0.14,-0.19,151.50,-57.38,74.69,4.44,-1.81,2.87,4,9
1772722089.103947,979933,0.25,0.05,-0.27,-31.31,-76.37,248.19,8.88,12.56,2.19,-0.05,-0.17,-0.03,151.44,-57.44,74.81,1.69,-3.69,2.81,4,8
1772722089.144282,979973,0.02,-0.15,-0.23,-32.63,-76.69,248.25,3.56,6.19,-0.50,-0.15,-0.11,0.01,151.44,-57.63,74.69,-2.19,-3.44,0.75,5,10
1772722089.183998,980013,-0.05,-0.13,-0.20,-33.06,-76.94,248.31,-2.00,7.37,-1.50,-0.26,0.01,0.03,151.44,-57.75,74.44,-2.62,-4.12,1.12,5,8
1772722089.224032,980053,0.05,0.03,-0.21,-33.63,-77.25,248.44,-4.94,9.56,0.13,-0.18,0.05,-0.06,151.50,-57.94,74.19,-1.19,-0.62,1.06,4,8
1772722089.264201,980093,0.30,0.05,-0.26,-34.44,-77.56,248.25,-4.25,8.31,0.62,-0.09,-0.01,-0.11,151.62,-57.94,74.06,0.00,1.00,1.00,4,5
1772722089.304572,980134,0.08,0.26,-0.21,-35.13,-77.75,248.06,-3.12,2.44,0.88,-0.14,0.03,-0.11,151.69,-57.94,74.06,2.06,-0.31,1.87,4,5
1772722089.345006,980174,0.10,0.04,-0.24,-35.31,-77.81,247.87,-1.12,3.25,-3.37,-0.07,0.02,-0.03,151.69,-58.00,74.06,-0.62,0.50,0.19,3,6
1772722089.385142,980214,-0.01,0.10,-0.05,-35.25,-78.00,247.94,0.25,2.69,-2.25,-0.12,0.04,-0.03,151.75,-58.00,74.00,-0.88,-0.37,-0.19,3,6
1772722089.424957,980254,0.00,0.02,-0.07,-35.31,-78.12,248.00,1.31,4.31,-1.94,-0.16,0.00,-0.11,151.75,-58.00,73.94,-0.62,-0.06,-0.50,3,6
1772722089.465030,980294,0.17,-0.04,-0.16,-35.63,-78.37,248.06,1.25,5.19,-2.06,0.00,-0.05,-0.22,151.81,-57.94,73.94,-0.44,1.37,0.00,3,6
1772722089.505327,980335,0.14,-0.10,-0.10,-35.75,-78.50,248.19,0.56,0.56,-2.25,0.00,0.02,-0.23,151.87,-57.88,74.00,-0.31,1.00,0.56,3,5
1772722089.545630,980375,0.07,0.18,-0.02,-35.44,-78.56,248.25,-0.13,-1.06,-2.19,-0.02,0.03,-0.16,151.94,-57.88,73.94,-0.13,0.75,0.37,2,4
1772722089.585936,980415,-0.04,0.09,0.00,-34.94,-78.56,248.31,3.44,-1.81,-3.19,-0.09,0.00,0.00,151.94,-57.88,73.94,-0.19,-1.00,-0.13,1,4
1772722089.626099,980455,-0.09,-0.18,0.01,-34.50,-78.62,248.50,3.87,0.00,-1.31,-0.15,-0.01,-0.01,151.94,-57.94,73.94,-0.69,-0.81,-0.56,1,4
1772722089.666048,980495,-0.10,-0.21,-0.06,-34.63,-78.69,248.62,0.94,2.94,-0.50,-0.20,0.02,-0.08,151.94,-57.94,73.87,-0.81,0.00,-0.62,1,5
1772722089.706219,980535,0.07,-0.12,-0.17,-35.00,-78.75,248.62,-1.69,3.00,2.00,-0.06,0.01,-0.16,152.00,-57.94,73.81,-0.37,1.00,-0.25,1,5
1772722089.746228,980575,0.34,0.00,-0.26,-35.63,-78.87,248.44,-2.19,2.44,1.87,-0.04,-0.02,-0.20,152.00,-57.88,73.87,0.00,1.00,-0.25,1,4
1772722089.786355,980616,0.23,0.00,-0.18,-35.88,-78.87,248.37,-0.81,-2.50,0.19,-0.02,-0.01,-0.16,152.06,-57.81,73.87,0.06,0.50,0.06,2,5
1772722089.826300,980655,0.07,-0.01,-0.06,-35.56,-78.75,248.25,0.19,-2.94,0.19,-0.04,0.00,0.03,152.06,-57.81,73.87,0.75,-0.81,0.19,2,8
1772722089.866641,980696,0.06,-0.11,-0.02,-35.25,-78.69,248.31,0.13,-2.37,0.44,-0.10,0.04,0.01,152.00,-57.88,73.87,0.19,-0.88,-0.25,2,8
1772722089.907202,980736,0.01,-0.16,-0.07,-35.00,-78.62,248.31,-1.50,-1.69,0.94,-0.14,-0.04,-0.09,152.00,-57.88,73.87,-1.00,0.31,-1.00,2,8
1772722089.947028,980776,0.02,0.01,-0.04,-34.94,-78.56,248.12,-4.12,-1.00,1.87,-0.16,0.03,-0.21,152.00,-57.88,73.87,-0.44,0.56,0.13,2,7
1772722089.986635,980816,0.01,0.09,-0.01,-34.88,-78.50,248.00,-2.94,-1.56,0.50,-0.05,0.00,-0.20,152.06,-57.81,73.87,-0.25,1.00,0.19,2,7
1772722090.026867,980856,0.13,0.08,-0.01,-34.69,-78.44,247.87,-0.88,-2.19,0.50,0.00,-0.01,-0.15,152.06,-57.81,73.87,0.25,0.62,-0.25,2,7
1772722090.067030,980896,0.05,0.00,0.03,-34.44,-78.31,247.87,1.19,-2.31,0.62,0.00,-0.04,-0.05,152.12,-57.75,73.87,0.56,-0.88,0.25,2,5
1772722090.107810,980937,-0.03,-0.11,0.03,-34.31,-78.25,247.94,0.75,-0.44,0.25,-0.11,-0.05,-0.07,152.06,-57.81,73.81,-0.31,-1.69,0.00,2,7
1772722090.147938,980977,0.01,-0.12,-0.04,-34.31,-78.31,247.69,-2.06,0.50,1.12,-0.18,-0.02,-0.04,152.06,-57.88,73.75,-0.75,-1.37,-0.06,2,6
1772722090.188072,981017,0.04,0.04,-0.10,-34.50,-78.25,247.56,-3.75,1.31,1.69,-0.11,-0.04,-0.16,152.00,-57.88,73.75,-0.19,-0.13,-0.13,1,6
1772722090.227940,981057,0.14,0.09,-0.11,-34.81,-78.31,247.25,-3.12,0.56,1.87,-0.07,-0.02,-0.12,152.00,-57.88,73.75,0.00,0.25,0.25,1,2
1772722090.267848,981097,0.17,0.12,-0.09,-35.00,-78.25,247.06,-1.56,-2.44,1.62,-0.04,0.02,-0.08,152.00,-57.88,73.75,0.06,0.00,0.37,1,2
1772722090.308283,981137,-0.11,0.10,0.05,-34.94,-78.12,247.06,-0.06,-1.31,0.19,-0.14,0.04,-0.04,152.00,-57.88,73.75,0.44,-0.69,0.44,1,4
1772722090.348616,981178,-0.03,-0.03,-0.01,-34.94,-78.12,247.06,0.75,0.81,0.19,-0.14,0.01,-0.01,152.00,-57.94,73.75,-0.19,-0.94,-0.13,1,5
1772722090.388763,981218,-0.01,-0.10,-0.08,-35.19,-78.19,247.06,0.19,2.75,1.31,-0.12,0.00,-0.04,152.00,-57.94,73.69,-0.06,-0.62,-0.50,1,5
1772722090.428775,981258,0.17,-0.09,-0.19,-35.75,-78.25,247.00,-1.19,3.94,2.06,-0.08,-0.04,-0.15,151.94,-57.94,73.75,-0.06,0.19,-0.69,1,6
1772722090.468997,981298,0.37,-0.07,-0.29,-36.44,-78.31,246.81,-3.25,0.50,2.87,0.00,-0.02,-0.28,151.94,-57.94,73.75,-0.37,0.13,-0.50,1,6
1772722090.508889,981338,0.47,0.00,-0.36,-36.63,-78.19,246.62,-4.12,-6.69,3.00,0.00,0.03,-0.22,151.94,-57.94,73.75,0.13,0.00,0.00,1,5
1772722090.549437,981378,0.74,-0.16,-0.52,-36.06,-77.87,246.37,-5.31,-15.25,3.19,-0.03,-0.05,-0.21,151.94,-57.94,73.75,0.00,-0.56,-0.06,1,5
1772722090.589565,981418,0.92,-0.37,-0.80,-34.38,-77.19,246.06,-10.63,-30.19,4.69,-0.09,-0.02,-0.10,151.94,-57.94,73.75,0.00,-0.62,-0.06,1,5
1772722090.628557,981458,0.49,-0.13,-0.42,-31.19,-76.12,245.69,-20.75,-48.31,0.25,-0.20,0.00,0.06,151.87,-58.00,73.75,1.44,-1.50,0.31,1,5
1772722090.669120,981498,-0.73,0.31,0.37,-26.56,-74.44,245.25,-22.62,-44.44,-5.06,-0.35,0.17,0.21,151.81,-58.00,73.81,1.81,-0.88,-0.31,1,5
1772722090.709647,981539,-0.66,0.46,0.54,-23.06,-73.25,245.00,-15.50,-22.62,-5.06,-0.31,0.07,0.08,151.69,-58.06,73.87,1.00,2.25,-2.94,1,2
1772722090.750057,981579,-0.26,0.39,0.34,-21.19,-72.75,244.87,-5.94,-10.25,-3.25,-0.10,-0.05,-0.11,151.62,-58.00,74.00,0.56,3.75,-2.87,2,2
1772722090.789825,981619,-0.13,0.28,0.26,-20.50,-72.44,245.06,3.06,-5.94,-0.75,-0.08,-0.02,-0.10,151.56,-57.81,74.19,0.00,2.00,-1.94,2,2
1772722090.828955,981658,-0.07,0.05,0.18,-20.50,-72.25,245.19,5.87,-2.81,0.37,-0.02,-0.05,-0.15,151.50,-57.69,74.31,0.88,2.56,-1.75,2,1
1772722090.869558,981699,0.00,0.00,0.14,-20.69,-72.12,245.31,5.19,-1.19,0.13,-0.02,0.00,-0.16,151.44,-57.63,74.44,1.50,2.56,-1.19,2,2
1772722090.910243,981739,0.10,0.02,0.05,-20.75,-72.19,245.56,3.12,2.00,-1.94,0.04,-0.13,-0.23,151.44,-57.50,74.62,1.06,1.75,-1.19,2,1
1772722090.950189,981780,0.10,0.04,0.14,-20.75,-72.25,245.69,2.69,0.75,-1.81,0.00,-0.05,-0.19,151.37,-57.38,74.75,0.50,1.50,-0.75,2,2
1772722090.990054,981819,0.00,0.06,0.15,-20.75,-72.25,245.75,3.19,1.44,-0.37,0.05,-0.08,-0.17,151.37,-57.31,74.94,2.31,1.94,0.31,2,2
1772722091.029591,981859,-0.02,0.05,0.18,-20.94,-72.31,245.87,3.37,3.62,-0.19,-0.01,-0.01,-0.19,151.37,-57.19,75.06,1.69,1.37,0.94,2,2
1772722091.070199,981899,0.00,0.02,0.15,-21.25,-72.44,246.00,4.00,4.56,-0.88,-0.01,-0.06,-0.21,151.37,-57.19,75.19,0.31,0.69,0.31,3,3
1772722091.111137,981940,-0.02,-0.04,0.15,-21.44,-72.62,246.19,3.87,6.56,-2.06,-0.05,0.06,-0.19,151.44,-57.13,75.19,-0.56,-0.75,-0.44,3,3
1772722091.151364,981980,-0.19,-0.08,0.20,-21.62,-72.94,246.37,3.69,9.00,-1.69,-0.04,0.02,-0.15,151.44,-57.13,75.12,0.31,-1.12,-0.75,3,3
1772722091.191699,982021,-0.25,-0.03,0.19,-22.06,-73.31,246.56,5.94,16.00,-1.19,-0.07,0.07,-0.14,151.37,-57.19,75.12,-0.62,-0.94,-1.37,2,4
1772722091.230907,982060,-0.14,-0.09,0.06,-23.19,-74.00,246.75,8.38,22.69,0.25,-0.07,0.03,-0.21,151.31,-57.19,75.12,-1.87,-2.00,-1.31,2,4
1772722091.271380,982100,0.00,-0.05,0.00,-24.87,-74.81,246.94,8.88,23.50,1.56,-0.14,-0.04,-0.10,151.25,-57.25,75.00,-0.13,-1.25,-0.06,2,5
1772722091.311828,982141,0.31,-0.05,-0.27,-26.94,-75.56,247.00,5.69,17.44,4.50,-0.05,0.03,-0.03,151.25,-57.31,75.00,2.44,-0.88,1.00,2,5
1772722091.351665,982181,0.36,0.00,-0.35,-28.94,-76.00,246.87,3.44,12.56,5.00,0.00,-0.07,-0.11,151.19,-57.31,75.12,1.50,-0.37,0.62,2,5
1772722091.392269,982221,0.33,0.00,-0.34,-30.56,-76.25,246.75,1.69,6.87,3.56,-0.09,-0.05,-0.16,151.19,-57.31,75.12,-1.19,-0.75,-0.25,3,4
1772722091.431567,982261,0.18,-0.07,-0.19,-31.37,-76.37,246.62,-0.56,1.69,1.19,0.00,-0.10,-0.20,151.19,-57.31,75.06,-1.81,-1.31,-1.62,3,5
1772722091.472286,982301,0.15,-0.08,-0.06,-31.56,-76.44,246.56,-2.44,-0.56,0.69,-0.04,-0.07,-0.19,151.12,-57.31,75.00,-2.37,-1.87,-2.06,2,6
1772722091.512900,982342,0.04,-0.10,0.11,-31.44,-76.37,246.50,-4.37,-1.31,1.94,-0.03,-0.22,-0.17,151.06,-57.31,74.87,-2.75,-2.94,-0.31,2,6
1772722091.552651,982382,0.03,0.00,0.17,-31.44,-76.31,246.19,-6.75,-0.75,2.94,-0.04,0.00,-0.03,151.12,-57.44,74.62,-4.62,-3.31,1.44,2,6
1772722091.592583,982422,-0.06,0.21,0.15,-31.50,-76.25,245.81,-8.25,3.50,1.56,-0.14,0.17,0.01,151.31,-57.56,74.25,-2.94,-2.19,1.94,2,6
1772722091.631892,982461,-0.01,0.30,-0.05,-31.81,-76.31,245.50,-5.87,6.50,0.19,-0.18,0.12,0.01,151.44,-57.63,74.00,-1.00,0.62,2.87,2,7
1772722091.672897,982502,0.07,0.26,-0.10,-32.50,-76.56,245.31,-2.19,5.69,-0.06,-0.12,-0.11,-0.12,151.69,-57.69,73.81,-2.37,0.00,2.81,2,6
1772722091.713504,982542,0.12,0.20,-0.02,-33.06,-76.69,245.25,-0.62,3.87,-0.88,-0.16,0.07,-0.09,151.94,-57.75,73.56,-2.06,-0.94,2.31,3,7
1772722091.753569,982583,-0.04,0.13,0.01,-33.25,-76.81,245.25,0.69,3.62,-2.62,-0.10,0.10,-0.11,152.06,-57.75,73.37,-0.13,-0.37,1.25,3,7
1772722091.793655,982623,0.01,0.04,-0.08,-33.31,-77.00,245.37,2.00,5.87,-3.31,-0.10,0.02,-0.11,152.19,-57.81,73.31,1.06,-0.25,1.44,3,7
1772722091.833963,982663,0.13,-0.06,-0.20,-33.56,-77.25,245.56,3.44,5.12,-2.44,-0.11,-0.05,-0.04,152.19,-57.81,73.31,0.88,-0.19,0.94,3,7
1772722091.874021,982703,0.06,-0.06,-0.16,-33.94,-77.50,245.69,2.94,3.31,-0.75,-0.13,0.04,-0.10,152.19,-57.88,73.31,0.81,-0.62,1.25,3,6
1772722091.914437,982743,0.07,-0.15,-0.11,-34.19,-77.62,245.81,1.62,2.81,-1.62,-0.09,0.01,-0.10,152.25,-57.88,73.31,-0.69,0.44,-0.13,3,6
1772722091.954640,982783,0.09,-0.14,-0.05,-34.25,-77.75,245.87,-0.19,1.25,-0.62,-0.07,0.01,-0.11,152.31,-57.88,73.25,-0.75,-0.31,-0.44,3,5
1772722091.994592,982824,0.04,-0.11,-0.02,-34.31,-77.81,245.81,-0.56,2.00,0.06,-0.04,0.00,-0.07,152.31,-57.88,73.19,-0.31,-0.75,-0.25,2,5
1772722092.034583,982864,0.02,-0.05,0.02,-34.50,-77.87,245.69,-0.88,2.75,1.25,-0.10,-0.02,-0.09,152.25,-57.94,73.19,-0.25,-1.12,0.00,3,4
1772722092.074927,982904,0.03,-0.04,-0.03,-35.06,-77.94,245.56,-1.19,3.44,2.87,-0.06,0.03,-0.13,152.25,-57.94,73.19,0.25,-0.62,0.13,3,4
1772722092.115247,982944,-0.04,0.03,-0.04,-35.88,-78.00,245.50,-1.06,3.56,2.81,-0.02,-0.02,-0.10,152.25,-58.00,73.12,-0.44,-0.44,-0.75,2,3
1772722092.155481,982984,-0.04,-0.10,-0.01,-36.63,-78.06,245.37,-0.13,5.50,2.12,-0.10,-0.02,-0.13,152.19,-58.00,73.06,-1.87,-2.12,-0.56,2,3
1772722092.194799,983024,0.11,-0.14,-0.08,-37.69,-78.19,245.19,-1.37,6.50,4.31,-0.06,0.07,-0.13,152.19,-58.06,72.94,-1.12,-1.37,-0.44,2,3
1772722092.234755,983064,0.09,-0.01,-0.10,-39.00,-78.25,245.00,-2.12,5.44,5.00,-0.09,0.01,-0.07,152.19,-58.13,72.87,0.25,-1.06,-0.56,2,3
1772722092.275285,983104,0.28,-0.04,-0.16,-40.31,-78.31,244.75,-1.12,3.25,4.94,-0.07,-0.02,-0.10,152.19,-58.13,72.87,-0.69,-1.06,-0.88,2,2
1772722092.315660,983145,0.06,-0.07,-0.07,-41.13,-78.19,244.50,-2.12,-1.69,5.81,-0.13,0.05,-0.07,152.12,-58.13,72.87,-0.62,-0.69,-1.25,2,2
1772722092.355878,983185,0.02,0.00,-0.03,-41.69,-78.00,244.25,-2.81,-0.37,5.44,-0.14,0.00,-0.06,152.06,-58.13,72.87,0.06,-0.19,-1.81,2,3
1772722092.395419,983224,0.08,0.04,-0.02,-42.25,-77.87,243.94,-3.62,0.25,4.94,-0.08,0.00,-0.09,151.94,-58.13,72.94,-0.25,-0.19,-2.00,2,2
1772722092.434436,983263,0.02,0.09,0.03,-42.75,-77.75,243.62,-3.19,-0.50,4.31,-0.09,0.03,-0.06,151.81,-58.06,73.06,-0.44,-0.06,-2.00,2,2
1772722092.475133,983304,0.08,0.15,0.00,-43.19,-77.62,243.37,-2.37,0.69,2.56,-0.08,0.00,-0.08,151.69,-58.00,73.12,0.13,-0.50,-2.06,2,1
1772722092.516206,983345,0.21,0.12,-0.13,-43.56,-77.56,243.31,-1.44,0.50,2.37,-0.13,0.03,-0.16,151.62,-58.00,73.19,-0.37,-0.06,-2.00,2,2
1772722092.556561,983386,0.27,0.06,-0.28,-43.75,-77.50,243.25,-0.69,-3.37,0.56,-0.07,-0.09,-0.23,151.56,-57.94,73.25,-0.94,1.00,-2.19,2,3
1772722092.595979,983425,0.48,0.00,-0.39,-43.31,-77.37,243.19,-1.19,-9.69,1.06,-0.03,-0.03,-0.20,151.50,-57.88,73.31,0.75,0.56,-1.44,2,3
1772722092.635125,983464,0.69,-0.01,-0.46,-42.13,-77.00,243.12,-3.00,-19.81,0.88,-0.01,-0.08,-0.16,151.37,-57.81,73.44,1.56,0.25,-1.37,2,4
1772722092.676004,983505,0.94,0.00,-0.63,-39.56,-76.31,243.06,-5.75,-30.87,1.00,-0.18,-0.04,0.02,151.25,-57.81,73.56,2.31,-0.88,-0.62,2,3
1772722092.717076,983546,-0.10,0.23,-0.06,-35.56,-75.00,243.06,-7.44,-46.81,-1.00,-0.11,0.00,-0.01,151.12,-57.81,73.75,2.75,0.25,-0.19,2,4
1772722092.756952,983586,-0.76,0.32,0.41,-31.56,-73.62,243.12,-4.50,-38.13,-3.44,-0.41,0.15,0.26,151.00,-57.94,73.81,3.00,-1.25,0.37,2,3
1772722092.796682,983626,-0.73,0.35,0.54,-29.12,-72.62,243.37,-1.25,-17.75,-2.69,-0.28,0.00,0.13,150.87,-58.06,73.87,1.69,0.94,-1.25,3,4
1772722092.835816,983665,-0.18,0.23,0.31,-28.12,-72.31,243.56,2.81,-5.06,-3.37,-0.14,-0.05,0.00,150.75,-58.00,74.06,-0.06,3.19,-2.19,4,4
1772722092.876812,983706,-0.04,0.13,0.24,-27.69,-72.25,243.81,4.00,-2.06,-3.69,0.01,0.01,-0.12,150.75,-57.81,74.19,-0.25,3.87,-1.50,4,4
1772722092.917403,983747,0.06,0.06,0.10,-27.31,-72.25,244.12,4.37,-1.62,-3.94,0.03,-0.10,-0.23,150.81,-57.69,74.31,0.06,2.37,-0.75,4,4
1772722092.957654,983787,0.10,-0.07,0.11,-27.00,-72.25,244.44,5.12,-0.75,-4.31,0.07,-0.07,-0.26,150.87,-57.56,74.37,0.19,3.12,-0.50,6,4
1772722092.997235,983826,0.06,-0.10,0.15,-26.62,-72.25,244.75,4.37,-0.88,-3.87,0.05,-0.07,-0.29,150.94,-57.38,74.50,0.06,2.44,-0.88,5,5
1772722093.037406,983867,0.19,-0.15,0.10,-26.37,-72.31,245.06,3.75,-0.13,-2.56,-0.02,-0.11,-0.22,151.00,-57.25,74.62,0.62,0.75,0.69,6,5
1772722093.077962,983907,0.05,-0.15,0.17,-26.12,-72.31,245.31,1.81,-2.50,-1.69,0.01,-0.02,-0.12,151.06,-57.19,74.62,0.19,0.81,0.06,6,5
1772722093.118658,983948,-0.16,-0.01,0.21,-25.75,-72.19,245.44,0.81,-1.00,-0.69,-0.07,-0.05,-0.10,151.06,-57.19,74.69,0.31,-0.19,0.44,6,6
1772722093.158326,983988,-0.08,-0.06,0.15,-25.75,-72.25,245.44,1.12,3.44,0.88,-0.08,0.02,-0.19,151.06,-57.19,74.69,-0.31,0.06,1.06,5,7
1772722093.197664,984027,-0.04,0.10,0.04,-26.19,-72.37,245.31,0.81,5.94,1.50,-0.17,0.02,-0.14,151.12,-57.19,74.62,-0.06,0.00,1.00,5,7
1772722093.238142,984067,-0.06,-0.01,0.00,-26.69,-72.56,245.31,1.87,6.75,1.06,-0.16,-0.01,-0.11,151.19,-57.25,74.56,0.00,-0.69,0.69,5,7
1772722093.278414,984108,0.18,0.00,-0.09,-27.31,-72.75,245.25,1.12,5.62,2.06,0.00,0.02,-0.06,151.19,-57.25,74.56,0.81,-0.37,0.69,5,8
1772722093.318821,984148,0.13,0.07,-0.20,-27.87,-72.87,245.12,0.50,5.00,2.50,-0.24,0.09,0.00,151.19,-57.25,74.62,3.00,0.19,2.56,5,7
1772722093.359023,984188,0.18,0.22,-0.19,-28.62,-73.00,245.00,0.37,3.25,2.94,-0.04,-0.15,-0.15,151.19,-57.25,74.81,5.87,2.44,1.81,4,7
1772722093.398817,984228,0.12,0.09,-0.03,-29.19,-73.06,244.94,1.62,0.56,0.13,-0.11,-0.08,-0.08,151.12,-57.25,75.06,1.44,-0.25,0.62,4,5
1772722093.438198,984267,-0.12,-0.06,0.13,-29.12,-73.06,245.19,1.94,0.94,-2.19,-0.07,0.00,-0.11,151.12,-57.19,75.12,-1.12,1.19,-2.19,4,5
1772722093.479226,984308,-0.23,-0.15,0.18,-29.06,-73.19,245.37,2.06,5.94,-2.00,-0.09,-0.02,-0.14,151.06,-57.13,75.19,-1.06,1.62,-2.56,4,5
1772722093.519664,984349,0.00,-0.25,0.15,-29.37,-73.50,245.44,2.12,9.81,-0.25,0.00,-0.03,-0.19,151.06,-57.00,75.19,-3.69,0.62,-2.00,4,5
1772722093.560037,984389,-0.08,-0.41,0.23,-29.75,-73.81,245.69,-0.25,10.19,1.50,0.17,-0.12,-0.21,151.12,-56.94,75.00,-7.19,-1.37,-0.75,5,5
1772722093.599669,984429,-0.27,-0.18,0.42,-30.19,-74.06,245.56,-5.62,13.25,6.00,-0.11,0.17,-0.07,151.37,-57.06,74.37,-7.75,-3.81,0.19,5,5
1772722093.638779,984468,0.06,0.06,0.09,-31.56,-74.44,245.06,-8.06,18.25,8.13,-0.08,0.21,-0.28,151.56,-57.19,74.00,-1.37,-0.06,2.62,5,5
1772722093.679527,984509,-0.08,0.35,0.00,-33.50,-74.81,244.44,-5.44,16.19,6.06,-0.17,0.00,-0.17,151.75,-57.25,73.81,0.44,-1.19,2.81,5,6
1772722093.720429,984550,0.38,0.25,-0.34,-35.19,-75.19,244.06,-1.44,12.31,3.87,-0.09,-0.05,-0.10,151.81,-57.31,73.69,-0.81,-4.19,0.75,5,6
1772722093.760712,984590,0.13,0.21,-0.21,-36.38,-75.37,243.87,-0.31,-1.00,5.31,0.02,-0.07,-0.18,151.81,-57.44,73.50,-2.31,-2.69,-0.88,5,6
1772722093.800173,984629,-0.27,0.14,-0.12,-36.81,-75.19,243.69,0.69,-0.69,3.75,-0.11,-0.04,-0.01,151.75,-57.56,73.37,-0.44,-3.25,0.62,5,6
1772722093.839221,984668,-0.22,0.17,-0.15,-37.50,-75.19,243.56,0.31,7.37,3.25,-0.11,0.06,-0.01,151.75,-57.69,73.31,-0.25,-2.69,1.56,4,6
1772722093.880250,984709,0.19,0.19,-0.20,-38.44,-75.31,243.37,0.06,5.06,1.94,-0.18,-0.04,-0.01,151.75,-57.75,73.25,-0.56,-0.06,1.50,4,6
1772722093.920784,984750,-0.01,0.33,-0.07,-39.13,-75.37,243.25,1.00,2.06,2.62,-0.12,0.00,-0.01,151.81,-57.75,73.19,0.00,-0.19,1.37,4,5
1772722093.961138,984791,0.01,0.25,-0.10,-40.00,-75.37,243.19,2.94,4.69,0.50,-0.08,-0.04,-0.04,151.87,-57.81,73.12,0.19,0.56,1.25,4,5
1772722094.001313,984831,0.03,0.15,-0.20,-40.88,-75.56,243.19,4.19,6.62,-0.62,-0.11,0.00,-0.06,151.94,-57.81,73.06,0.19,-0.31,1.19,4,5
1772722094.041227,984871,0.12,0.07,-0.24,-41.75,-75.75,243.31,4.81,6.12,-1.81,-0.22,0.05,-0.03,152.00,-57.88,73.00,0.94,0.19,1.00,4,4
1772722094.081804,984911,0.20,0.02,-0.24,-42.38,-76.00,243.50,4.25,2.81,-3.25,-0.11,0.00,-0.06,152.06,-57.81,73.06,0.94,1.81,-0.44,3,2
1772722094.121995,984951,0.32,-0.09,-0.29,-42.50,-76.12,243.69,4.00,-0.50,-1.94,-0.03,0.00,-0.08,152.00,-57.75,73.19,0.81,1.56,-1.19,2,3
1772722094.162041,984991,0.11,-0.13,-0.24,-42.25,-76.12,243.87,2.56,-6.62,-1.31,-0.14,0.04,-0.14,151.94,-57.69,73.31,0.81,0.31,-0.62,3,2
1772722094.202236,985031,-0.04,-0.07,0.00,-41.50,-76.00,244.06,1.56,-6.19,-0.69,-0.09,0.02,-0.12,151.94,-57.69,73.31,0.25,1.00,-1.19,3,3
1772722094.242279,985071,0.11,-0.11,-0.05,-41.00,-75.81,244.25,0.50,-3.25,-0.62,-0.13,0.05,-0.09,151.87,-57.69,73.37,0.44,-0.50,-1.19,3,4
1772722094.282786,985112,-0.37,0.07,0.18,-40.44,-75.69,244.25,-2.62,-10.13,0.81,0.13,-0.13,-0.29,151.81,-57.63,73.44,-0.56,-0.19,-0.56,3,4
1772722094.322852,985152,-0.24,0.07,0.21,-39.56,-75.44,244.19,-1.56,-1.37,-0.37,-0.15,0.03,-0.01,151.81,-57.63,73.44,0.31,-0.25,0.13,3,5
1772722094.362682,985192,0.13,0.00,0.00,-39.69,-75.56,244.19,-1.25,2.37,-0.69,-0.06,-0.01,-0.12,151.81,-57.63,73.44,-0.62,1.06,-0.81,3,4
1772722094.403031,985232,0.10,0.23,-0.04,-39.75,-75.56,244.12,0.13,-1.69,0.50,-0.02,-0.07,-0.13,151.81,-57.56,73.50,-0.50,0.56,-0.69,3,4
1772722094.443301,985272,0.17,-0.01,-0.08,-39.69,-75.50,244.25,1.62,-1.12,-0.81,-0.06,-0.08,-0.09,151.81,-57.56,73.44,-0.69,-0.13,-0.94,2,5
1772722094.483579,985312,0.23,-0.08,-0.14,-39.44,-75.50,244.37,-0.88,-3.50,-0.88,-0.12,0.01,-0.13,151.81,-57.50,73.44,-0.75,-0.13,-0.56,3,4
1772722094.523664,985353,0.14,0.07,-0.22,-38.81,-75.31,244.31,-1.62,-5.87,-0.19,-0.07,-0.08,-0.15,151.81,-57.50,73.44,0.00,0.75,-0.56,3,5
1772722094.563664,985393,0.28,-0.01,-0.31,-38.19,-75.12,244.31,-0.88,-9.19,0.62,-0.06,0.01,-0.18,151.81,-57.50,73.44,0.81,-0.56,-0.62,2,6
1772722094.602860,985432,0.54,0.00,-0.40,-37.50,-74.81,244.31,-1.50,-17.12,0.50,-0.12,0.14,0.04,151.75,-57.50,73.50,1.12,-1.12,-0.50,2,9
1772722094.642362,985471,0.39,-0.11,-0.59,-35.75,-74.12,244.31,-3.25,-28.12,2.37,-0.15,-0.03,0.02,151.69,-57.50,73.56,-0.44,-1.00,-1.06,3,7
1772722094.683192,985512,0.25,-0.08,-0.39,-33.88,-73.19,244.25,-4.75,-36.44,4.19,-0.19,-0.07,0.06,151.62,-57.50,73.50,-0.31,0.75,-1.50,2,7
1772722094.723930,985553,-0.78,0.26,0.45,-31.69,-71.94,244.12,-6.19,-28.00,2.81,-0.32,0.17,0.01,151.56,-57.50,73.56,-0.81,0.81,-0.88,2,7
1772722094.764162,985593,-0.32,0.26,0.32,-30.25,-71.25,244.00,-7.12,-12.06,-1.37,-0.27,0.03,-0.02,151.62,-57.44,73.56,0.19,2.06,-1.69,2,7
1772722094.803616,985633,0.03,0.22,0.02,-29.31,-71.00,243.81,-5.19,-5.94,-2.81,-0.01,-0.07,-0.09,151.56,-57.38,73.62,0.13,1.87,-1.56,2,8
1772722094.842959,985672,0.15,0.22,0.09,-28.56,-70.81,243.87,-0.56,-3.44,-2.69,0.01,-0.03,-0.05,151.56,-57.25,73.75,-0.50,1.87,-0.69,4,8
1772722094.883655,985713,0.04,0.17,0.17,-28.25,-70.81,244.00,2.06,-0.69,-2.75,-0.01,0.03,-0.20,151.62,-57.19,73.75,0.19,2.81,-0.69,3,8
1772722094.924497,985754,0.31,-0.06,0.08,-28.06,-70.81,244.19,4.06,-0.75,-2.69,-0.01,-0.13,-0.24,151.69,-57.00,73.87,0.88,2.69,-0.62,3,8
1772722094.964825,985794,-0.08,-0.01,0.22,-27.87,-70.75,244.37,3.19,-1.12,-1.56,0.04,-0.06,-0.21,151.69,-56.88,74.06,1.56,1.69,0.06,3,7
1772722095.004013,985833,0.05,0.00,0.15,-27.87,-70.81,244.56,2.50,1.94,-1.19,0.06,-0.21,-0.25,151.69,-56.81,74.19,1.50,0.56,0.81,4,5
1772722095.044317,985874,0.10,0.00,0.24,-27.87,-70.81,244.62,0.88,1.00,-1.00,-0.02,-0.07,-0.08,151.69,-56.75,74.25,0.19,0.31,1.00,4,6
1772722095.085003,985914,-0.18,0.06,0.28,-27.87,-70.87,244.62,1.25,5.06,-1.31,-0.07,-0.09,-0.08,151.75,-56.81,74.19,-0.88,-0.25,0.75,6,6
1772722095.125342,985955,0.22,-0.02,0.06,-28.12,-71.12,244.69,1.00,8.63,-0.88,-0.04,0.07,-0.07,151.81,-56.81,74.12,-0.44,0.75,0.50,6,6
1772722095.165447,985995,-0.22,0.05,0.03,-28.56,-71.44,244.69,0.37,7.69,-0.75,-0.15,0.00,-0.15,151.87,-56.81,74.12,-1.37,-0.81,0.69,7,7
1772722095.205777,986035,0.08,-0.01,-0.04,-28.94,-71.75,244.75,1.12,10.38,-1.12,-0.10,0.01,-0.09,151.94,-56.81,74.00,-0.31,-0.31,0.13,7,7
1772722095.245084,986074,-0.04,0.18,0.03,-29.56,-72.06,244.75,2.06,9.19,-0.37,-0.10,0.07,-0.03,151.94,-56.81,73.94,-0.75,-1.50,-0.19,6,6
1772722095.285547,986115,-0.23,0.25,0.09,-30.37,-72.37,244.81,7.87,12.31,-0.37,-0.13,0.07,-0.08,151.87,-56.88,73.94,0.06,-0.88,-0.13,6,6
1772722095.326145,986155,-0.04,0.11,-0.02,-31.69,-72.87,244.94,12.56,15.25,-0.19,-0.16,0.01,-0.11,151.87,-56.94,73.87,-0.81,-1.00,-0.37,7,6
1772722095.366105,986195,0.24,-0.16,-0.23,-33.25,-73.31,245.25,12.56,13.81,-0.06,-0.15,0.12,-0.10,151.87,-56.94,73.81,0.56,-0.50,0.94,7,7
1772722095.405582,986235,0.36,-0.12,-0.45,-34.63,-73.75,245.50,7.37,10.94,0.00,0.06,-0.08,-0.13,151.87,-56.94,73.87,2.37,1.06,-0.19,6,6
1772722095.445198,986274,0.48,-0.14,-0.40,-35.50,-74.06,245.69,3.31,5.25,-2.06,0.00,-0.13,-0.10,151.81,-56.94,74.06,1.75,-0.31,-0.50,6,6
1772722095.486370,986315,0.28,-0.18,-0.24,-35.56,-74.25,245.81,-0.31,-0.31,-1.37,-0.01,-0.01,-0.13,151.75,-56.88,74.12,1.06,0.50,-1.19,5,6
1772722095.527005,986356,-0.09,-0.08,0.07,-35.31,-74.25,245.81,-3.12,-1.06,-0.37,-0.22,0.06,-0.07,151.62,-56.88,74.25,1.50,-0.19,-0.88,5,6
1772722095.566653,986396,-0.22,0.04,0.20,-35.19,-74.25,245.75,-2.75,1.06,0.13,-0.21,0.03,-0.09,151.56,-56.81,74.44,1.81,0.88,0.00,4,5
1772722095.607111,986436,-0.15,0.05,0.18,-35.25,-74.31,245.69,-1.06,5.31,-0.19,-0.04,-0.03,-0.14,151.56,-56.81,74.50,-0.81,0.06,-0.69,5,5
1772722095.646406,986476,0.09,0.07,0.08,-35.75,-74.50,245.56,0.00,7.50,-0.56,-0.05,-0.04,-0.18,151.56,-56.81,74.37,-2.94,-2.37,-0.88,4,5
1772722095.687138,986516,0.13,-0.01,0.02,-36.19,-74.75,245.56,0.69,6.00,-1.19,-0.03,-0.05,-0.16,151.56,-56.88,74.19,-4.00,-2.50,-1.06,4,5
1772722095.727572,986557,0.07,0.01,-0.01,-36.56,-74.94,245.56,-1.50,4.81,-1.25,-0.13,0.02,-0.11,151.62,-56.94,73.94,-3.25,-2.56,-0.06,4,5
1772722095.767657,986597,-0.01,0.21,0.06,-36.69,-75.12,245.50,-2.00,5.62,-2.62,-0.04,0.08,-0.12,151.62,-57.00,73.75,-0.81,-0.25,0.44,4,6
1772722095.807866,986637,-0.05,0.26,0.06,-36.94,-75.37,245.56,0.44,7.06,-3.44,-0.10,-0.05,-0.12,151.69,-57.00,73.69,-0.69,-0.13,0.56,4,5
1772722095.847812,986677,-0.02,0.06,0.03,-37.31,-75.69,245.69,3.19,9.19,-5.12,-0.08,0.00,-0.14,151.75,-57.00,73.62,-0.88,-1.25,0.13,3,5
1772722095.888051,986717,-0.03,0.00,-0.02,-37.75,-76.06,245.94,3.12,9.94,-4.75,-0.07,-0.02,-0.04,151.69,-57.06,73.56,0.00,-2.44,1.19,3,5
1772722095.928276,986758,0.07,-0.05,-0.04,-38.31,-76.50,246.12,2.75,9.56,-3.37,-0.02,0.00,-0.07,151.75,-57.19,73.44,0.00,-2.37,2.56,4,5
1772722095.968348,986798,0.21,-0.15,-0.12,-39.06,-76.94,246.37,1.62,8.31,-3.00,-0.14,-0.06,-0.08,151.81,-57.31,73.31,0.50,-2.69,2.81,3,5
1772722096.007663,986837,0.17,-0.10,-0.18,-39.56,-77.19,246.37,0.37,6.19,-1.62,-0.14,0.00,-0.06,151.87,-57.44,73.19,0.37,-2.06,2.19,3,5
1772722096.048283,986877,0.15,-0.19,-0.23,-39.81,-77.37,246.37,0.25,4.69,-1.44,-0.10,-0.05,-0.10,151.94,-57.50,73.12,-0.69,-1.12,0.37,3,4
1772722096.088581,986918,0.14,-0.11,-0.22,-40.19,-77.56,246.44,-0.31,3.06,0.37,-0.07,0.01,-0.07,151.87,-57.56,73.06,0.00,-0.75,-0.31,3,5
1772722096.128969,986958,0.10,-0.10,-0.20,-40.63,-77.62,246.37,-1.50,1.31,1.19,-0.15,0.06,-0.06,151.87,-57.63,73.06,0.06,-1.06,-0.25,2,6
1772722096.169219,986998,0.14,-0.06,-0.25,-40.88,-77.62,246.25,-2.56,-0.94,1.44,-0.19,0.05,-0.10,151.81,-57.63,73.06,0.25,-0.56,-0.37,2,4
1772722096.209099,987038,0.15,0.00,-0.19,-40.81,-77.62,246.12,-3.31,-2.56,1.75,-0.12,0.00,-0.09,151.81,-57.63,73.00,0.50,-0.44,-0.44,2,4
1772722096.249121,987078,0.05,0.07,-0.08,-40.69,-77.50,245.94,-2.37,-3.69,1.94,-0.16,0.05,-0.04,151.81,-57.63,73.06,0.19,0.00,-0.62,2,5
1772722096.289580,987119,0.00,0.12,0.00,-40.56,-77.31,245.81,-0.94,-2.00,1.87,-0.08,-0.01,-0.04,151.75,-57.63,73.06,-0.19,0.37,-1.19,2,4
1772722096.329658,987159,0.10,0.03,-0.05,-40.69,-77.25,245.75,-0.19,-0.19,1.00,-0.05,-0.06,-0.13,151.69,-57.63,73.12,0.06,0.50,-1.12,1,4
1772722096.370111,987199,0.22,-0.02,-0.07,-40.56,-77.19,245.69,-1.12,-2.19,0.56,-0.07,-0.09,-0.17,151.62,-57.56,73.19,-0.56,0.37,-1.25,1,5
1772722096.409994,987239,0.17,0.05,-0.09,-40.25,-77.06,245.62,-2.06,-5.12,1.37,-0.10,-0.03,-0.14,151.62,-57.56,73.19,-0.13,0.00,-0.50,1,5
1772722096.450212,987279,0.01,0.14,0.00,-39.75,-76.94,245.56,-2.06,-6.69,-0.13,-0.11,-0.01,-0.12,151.62,-57.56,73.19,-0.06,-0.62,-1.00,1,5
1772722096.490452,987320,0.00,0.13,0.07,-39.06,-76.69,245.50,-0.37,-5.94,-0.56,-0.10,-0.01,-0.08,151.56,-57.56,73.19,-0.25,-0.44,-1.00,1,5
1772722096.530462,987360,0.14,0.02,-0.05,-38.38,-76.50,245.56,0.56,-5.06,-0.44,-0.06,-0.05,-0.16,151.50,-57.56,73.25,0.00,0.19,-0.94,1,4
1772722096.570877,987400,0.33,-0.03,-0.27,-37.69,-76.31,245.62,-1.06,-8.56,-0.13,0.01,-0.12,-0.29,151.44,-57.50,73.31,-0.62,-0.81,-0.56,1,4
1772722096.610037,987439,0.76,-0.09,-0.62,-36.19,-75.87,245.44,-4.81,-19.25,-0.13,0.03,-0.09,-0.29,151.44,-57.50,73.31,0.88,-2.37,0.62,1,4
1772722096.649191,987478,1.11,-0.06,-0.65,-34.19,-75.19,245.37,-8.88,-40.19,0.75,-0.07,-0.01,-0.06,151.44,-57.63,73.19,0.06,-2.94,1.25,1,4
1772722096.690153,987519,-0.12,0.20,-0.02,-30.44,-73.69,245.31,-9.81,-47.13,-1.50,-0.27,0.14,0.16,151.44,-57.75,73.06,1.06,-1.62,1.12,2,4
1772722096.731021,987560,-0.69,0.21,0.38,-27.31,-72.44,245.25,-7.69,-25.06,-4.56,-0.35,0.23,0.25,151.37,-57.81,73.12,2.06,1.06,-1.00,2,3
1772722096.771201,987600,-0.30,0.19,0.14,-25.37,-71.87,245.31,-3.19,-9.56,-4.31,-0.30,-0.09,0.05,151.31,-57.75,73.25,0.62,2.75,-1.19,2,6
1772722096.810575,987640,-0.22,0.13,0.11,-24.62,-71.69,245.56,1.69,-6.31,-2.81,-0.21,-0.03,0.00,151.31,-57.63,73.37,-0.37,3.69,-0.94,2,6
1772722096.849794,987679,-0.01,0.08,0.05,-24.37,-71.56,245.62,2.75,-3.12,-1.56,-0.08,0.05,-0.06,151.37,-57.50,73.50,1.12,3.19,-0.94,3,6
1772722096.890774,987720,0.12,0.05,-0.02,-24.19,-71.50,245.81,3.31,-2.75,-2.12,0.00,-0.02,-0.14,151.37,-57.38,73.69,1.62,3.25,-0.88,3,5
1772722096.931808,987761,0.16,-0.07,-0.04,-23.94,-71.44,246.00,2.69,-2.25,-2.75,0.02,-0.05,-0.15,151.37,-57.25,73.87,1.12,2.87,-0.56,4,5
1772722096.971701,987801,0.11,-0.02,0.01,-23.50,-71.37,246.25,1.50,-2.19,-3.37,0.00,-0.04,-0.20,151.37,-57.13,74.00,0.44,2.81,-1.06,4,6
1772722097.011017,987840,0.03,0.02,0.12,-23.06,-71.37,246.44,1.31,-3.37,-3.56,0.05,-0.01,-0.26,151.44,-57.00,74.12,0.69,1.87,-0.06,3,6
1772722097.050210,987880,0.00,0.00,0.16,-22.69,-71.25,246.56,1.94,-3.94,-3.62,0.01,-0.02,-0.26,151.50,-56.88,74.19,-0.44,3.00,-0.31,3,7
1772722097.091417,987921,-0.11,0.04,0.20,-22.25,-71.19,246.75,2.50,-2.19,-2.50,-0.03,-0.01,-0.17,151.56,-56.81,74.25,2.19,0.50,1.06,2,6
1772722097.132227,987962,-0.15,0.01,0.14,-22.25,-71.19,246.94,3.81,1.62,-0.88,-0.08,-0.04,-0.08,151.50,-56.81,74.37,3.37,-0.69,2.25,3,7
1772722097.172493,988002,-0.10,-0.02,0.18,-22.44,-71.31,247.12,3.44,4.37,-0.75,-0.09,-0.04,-0.09,151.50,-56.88,74.50,2.19,-0.19,2.37,2,4
1772722097.211800,988041,-0.02,-0.03,0.02,-22.87,-71.56,247.19,3.94,8.63,-0.06,-0.20,0.02,-0.04,151.56,-56.94,74.50,2.00,-0.25,2.37,3,4
1772722097.251006,988080,0.09,-0.01,0.02,-23.31,-71.81,247.25,3.75,9.00,-0.56,-0.06,-0.14,-0.22,151.62,-56.94,74.50,-0.19,-0.06,1.75,2,7
1772722097.292280,988122,0.05,-0.12,0.07,-23.75,-72.12,247.37,2.50,7.37,-0.69,-0.04,0.00,-0.13,151.75,-57.06,74.31,-1.62,-0.69,1.25,2,8
1772722097.332870,988162,-0.02,0.00,0.11,-24.12,-72.37,247.44,0.06,8.13,0.06,-0.06,0.02,-0.11,151.87,-57.06,74.19,-1.00,-0.56,1.94,2,8
1772722097.372926,988203,-0.19,0.05,0.16,-24.69,-72.81,247.37,-1.06,10.31,0.13,-0.15,0.10,-0.02,152.00,-57.13,74.06,0.69,0.00,2.37,1,8
1772722097.412335,988242,-0.24,0.10,0.03,-25.50,-73.25,247.25,-0.44,15.94,1.94,-0.21,0.12,0.00,152.06,-57.13,74.12,6.37,2.31,3.00,1,8
1772722097.451762,988281,0.00,0.13,-0.13,-26.50,-73.69,247.00,0.62,20.31,1.87,-0.08,-0.15,-0.11,152.00,-57.13,74.50,5.50,1.44,2.06,2,8
1772722097.492948,988322,0.34,-0.01,-0.28,-27.87,-74.37,246.87,1.06,16.00,0.13,-0.01,-0.12,-0.13,151.94,-57.13,74.69,1.25,0.25,-0.19,1,8
1772722097.533950,988363,0.26,-0.21,-0.26,-28.81,-74.81,246.87,-0.69,10.06,-0.62,0.00,-0.09,-0.17,151.87,-57.13,74.75,0.19,-0.19,-0.88,2,7
1772722097.573990,988403,0.31,-0.26,-0.27,-29.31,-75.25,246.81,-2.94,5.75,-0.31,0.00,0.00,-0.13,151.87,-57.06,74.75,-0.88,0.19,-0.44,2,7
1772722097.614277,988443,0.23,-0.08,-0.19,-29.44,-75.31,246.69,-4.37,0.00,2.19,-0.13,0.06,-0.15,151.94,-57.06,74.69,-1.06,0.00,-0.25,2,7
1772722097.653847,988483,-0.13,-0.08,-0.04,-29.44,-75.25,246.50,-3.06,-1.25,1.37,-0.08,0.11,-0.16,151.94,-57.06,74.62,-1.44,-0.31,-1.44,2,3
1772722097.694287,988524,-0.04,-0.13,0.00,-29.44,-75.25,246.44,-1.75,2.06,0.19,-0.06,0.10,-0.17,152.00,-57.00,74.56,-2.87,-0.44,-2.50,2,3
1772722097.734809,988564,-0.07,-0.23,0.00,-29.50,-75.37,246.37,-2.56,2.81,-1.00,-0.07,0.12,-0.13,152.00,-57.00,74.37,-4.94,-1.31,-3.56,2,3
1772722097.775265,988604,-0.12,-0.16,-0.01,-29.37,-75.56,246.25,-4.62,5.25,-0.75,0.04,-0.34,-0.26,152.00,-56.94,74.19,-5.37,-2.37,-3.50,2,2
1772722097.814042,988643,0.09,-0.11,0.15,-29.44,-75.81,246.06,-6.06,5.94,0.37,0.08,-0.16,-0.19,152.00,-57.06,73.75,-8.38,-7.25,-0.31,2,3
1772722097.853294,988683,0.00,0.15,0.25,-29.75,-75.94,245.56,-7.25,7.00,3.62,-0.09,0.10,-0.03,152.12,-57.25,73.25,-4.87,-3.37,-0.37,2,2
1772722097.894421,988724,0.10,0.26,0.08,-30.75,-76.06,245.12,-4.31,9.13,5.44,-0.09,-0.10,-0.07,152.12,-57.31,73.12,0.56,-0.56,0.37,2,2
1772722097.935401,988765,0.14,0.28,-0.02,-32.19,-76.25,244.81,-0.88,8.00,5.94,-0.04,-0.21,-0.10,152.06,-57.31,73.19,0.06,-1.50,-0.44,1,2
1772722097.975354,988805,0.19,0.18,-0.11,-34.13,-76.31,244.44,0.50,5.56,4.81,-0.08,-0.08,-0.05,151.94,-57.38,73.12,-0.69,-2.37,-1.25,2,2
1772722098.014953,988844,0.14,0.10,-0.17,-35.06,-76.37,244.25,-1.19,3.00,2.94,-0.12,-0.01,0.01,151.87,-57.44,73.12,-0.56,-2.25,-0.94,2,3
1772722098.054299,988883,0.07,0.12,-0.16,-35.50,-76.37,244.06,-2.75,1.44,2.19,-0.11,-0.04,-0.01,151.75,-57.50,73.12,-0.56,-1.62,-0.94,2,3
1772722098.095276,988925,0.03,0.17,-0.21,-36.00,-76.37,243.87,-1.62,2.12,2.19,-0.15,0.03,0.00,151.69,-57.50,73.12,-0.13,-1.81,-0.37,2,4
1772722098.135810,988965,0.19,0.15,-0.27,-36.69,-76.44,243.75,0.13,0.06,2.00,-0.14,-0.01,-0.02,151.62,-57.56,73.12,0.37,-0.44,0.50,2,4
1772722098.175985,989005,0.14,0.09,-0.22,-37.06,-76.37,243.69,0.69,-2.37,1.50,-0.06,0.07,-0.10,151.62,-57.56,73.06,0.37,0.75,0.81,2,4
1772722098.216223,989046,0.10,0.10,-0.22,-36.94,-76.25,243.69,0.94,-4.37,-0.13,-0.10,-0.01,-0.13,151.69,-57.56,73.06,-0.50,1.00,0.81,2,3
1772722098.256796,989086,0.24,-0.02,-0.24,-36.63,-76.12,243.75,1.19,-6.87,-1.50,-0.04,-0.04,-0.17,151.75,-57.56,73.00,-0.62,0.00,0.25,2,3
