host_time_s,t_ms,ax1,ay1,az1,roll1,pitch1,yaw1,gx1,gy1,gz1,ax2,ay2,az2,roll2,pitch2,yaw2,gx2,gy2,gz2,emg1,emg2
1772725208.423282,4097344,0.23,-0.26,0.11,-29.75,-68.25,250.31,-7.25,16.44,18.00,0.27,-0.10,-0.24,141.56,-38.50,27.37,-1.56,-9.13,4.44,2,2
1772725208.423623,4097384,0.24,0.10,0.04,-32.31,-68.37,248.94,-8.31,12.75,22.50,0.01,0.16,-0.25,141.56,-38.88,26.62,1.56,-10.81,6.81,2,3
1772725208.423999,4097424,-0.07,0.57,-0.02,-34.63,-68.25,247.81,-4.19,12.94,22.12,-0.03,0.24,-0.18,141.50,-39.31,26.00,4.62,-9.69,8.25,2,5
1772725208.424336,4097463,-0.02,0.67,-0.14,-36.69,-68.31,247.19,4.81,14.13,11.88,0.00,0.13,-0.05,141.37,-39.81,25.50,5.25,-10.88,5.19,2,6
1772725208.424659,4097503,0.09,0.30,-0.16,-38.06,-68.50,247.06,13.63,12.13,1.31,-0.01,-0.01,-0.10,141.12,-40.25,25.00,3.19,-12.69,2.56,2,6
1772725208.424982,4097544,0.00,-0.16,-0.13,-39.50,-68.87,247.44,16.87,11.56,-1.25,-0.10,0.07,-0.11,140.75,-40.69,24.56,2.75,-13.19,0.81,2,7
1772725208.425302,4097585,-0.09,-0.47,-0.11,-40.81,-69.25,247.87,15.50,11.50,0.06,-0.06,-0.04,-0.02,140.44,-41.06,24.12,3.25,-12.00,1.12,2,6
1772725208.425625,4097625,-0.20,-0.65,-0.06,-42.56,-69.62,248.12,9.94,12.25,5.62,-0.63,-0.12,0.26,140.06,-41.44,23.69,-2.06,-10.69,-1.44,3,8
1772725208.425948,4097665,-0.57,-0.38,-0.18,-44.31,-69.94,247.87,1.25,18.62,9.19,-0.51,-0.06,0.21,139.94,-41.69,23.12,-5.37,-8.88,-4.31,3,9
1772725208.426264,4097704,0.06,0.01,-0.35,-46.75,-70.31,247.25,-5.19,25.62,10.00,-0.35,-0.16,0.23,139.81,-42.00,22.50,-4.06,-7.44,-2.62,4,8
1772725208.426582,4097745,0.17,0.47,-0.51,-48.63,-70.56,246.69,-8.44,24.37,8.13,-0.26,0.10,-0.05,139.81,-42.19,21.94,-4.87,-6.00,-0.06,4,9
1772725208.426896,4097785,0.19,0.62,-0.47,-51.13,-71.06,245.94,-5.69,19.50,2.87,0.00,-0.02,-0.18,139.81,-42.38,21.44,-0.13,-6.12,2.87,4,9
1772725208.427200,4097826,0.44,0.43,-0.41,-53.19,-71.37,245.50,0.50,14.25,1.06,-0.23,-0.03,-0.21,139.75,-42.69,21.06,2.75,-7.25,4.56,4,7
1772725208.427505,4097865,0.34,0.19,-0.30,-54.50,-71.44,245.44,5.81,3.75,2.31,0.03,-0.05,0.04,139.50,-43.00,20.75,3.81,-10.31,1.81,4,6
1772725208.427932,4097904,-0.21,-0.03,-0.16,-55.00,-71.37,245.56,9.63,1.31,1.69,-0.03,0.02,-0.05,139.12,-43.38,20.44,4.44,-13.75,0.00,5,6
1772725208.428262,4097946,-0.11,-0.24,0.08,-55.81,-71.44,245.75,9.81,5.50,2.75,-0.36,-0.28,0.20,138.69,-43.75,20.00,3.00,-15.38,0.06,5,6
1772725208.428580,4097986,-0.44,0.11,0.11,-57.13,-71.37,245.75,7.87,11.88,8.69,-0.64,-0.02,0.46,138.00,-44.19,19.75,8.50,-13.56,-3.56,5,7
1772725208.428905,4098026,-0.52,0.18,-0.05,-60.50,-71.50,245.44,8.38,26.06,9.25,-0.45,-0.09,0.76,137.31,-44.44,19.81,2.94,-10.63,-5.06,4,6
1772725208.429237,4098066,-0.32,0.08,-0.43,-64.94,-71.87,245.12,9.69,41.06,4.25,-0.63,-0.08,0.82,137.06,-44.56,19.44,-19.50,-8.38,-10.25,4,5
1772725208.429568,4098105,0.55,-0.26,-0.65,-69.06,-72.37,244.94,4.19,47.44,2.69,0.14,-0.29,-0.04,137.69,-44.50,17.94,-34.63,-5.00,-7.75,4,5
1772725208.429886,4098147,1.41,-0.02,-0.91,-74.37,-72.75,244.37,-5.62,32.94,6.19,0.48,-0.27,-0.43,138.50,-44.25,16.75,-22.75,2.44,-6.81,3,4
1772725208.430207,4098187,1.08,0.36,-0.63,-76.94,-72.69,243.62,-10.25,3.44,5.81,0.42,-0.09,-0.53,139.06,-44.13,15.94,-16.06,0.81,-0.69,3,7
1772725208.430525,4098227,0.49,0.51,-0.35,-75.75,-72.37,243.06,-4.94,-14.63,4.56,0.58,-0.05,-0.34,139.69,-43.88,15.50,-6.50,5.44,5.25,3,6
1772725208.430832,4098266,0.56,0.35,-0.12,-73.69,-72.06,243.25,6.19,-21.62,1.81,0.36,-0.25,-0.19,140.19,-43.56,15.75,2.44,7.37,5.69,3,8
1772725208.431140,4098306,0.47,0.47,0.35,-71.87,-71.75,243.56,12.25,-30.19,8.00,0.18,-0.19,0.00,140.31,-43.25,16.69,12.81,14.75,11.56,2,8
1772725208.431436,4098347,-0.16,0.60,0.68,-69.31,-71.06,244.06,15.69,-30.12,5.37,0.23,-0.25,0.02,140.50,-43.13,17.56,7.62,12.19,11.88,2,8
1772725208.431716,4098388,-0.36,0.43,0.87,-67.19,-70.56,244.75,15.88,-23.25,-2.31,-0.14,-0.37,-0.05,140.81,-43.00,18.06,6.56,10.06,13.75,2,7
1772725208.431998,4098428,-0.49,0.26,0.70,-65.00,-70.37,245.81,11.56,-15.50,-8.56,-0.16,-0.34,-0.28,141.12,-43.06,18.31,2.69,5.25,9.94,3,9
1772725208.432355,4098467,-0.16,0.20,0.38,-63.13,-70.44,246.69,7.75,-12.38,-14.19,-0.04,-0.28,-0.16,141.31,-43.13,18.31,0.00,-1.50,5.44,3,9
1772725208.432752,4098506,-0.34,0.08,0.45,-61.75,-70.69,247.37,6.19,-12.44,-16.62,-0.13,-0.15,0.15,141.37,-43.38,17.94,-0.56,-6.12,4.56,3,9
1772725208.433043,4098548,-0.41,-0.07,0.45,-59.94,-71.06,248.31,4.87,-2.31,-16.37,-0.08,-0.11,0.33,141.37,-43.69,17.31,-4.87,-8.19,3.12,3,9
1772725208.433332,4098588,-0.15,-0.06,0.22,-59.31,-71.62,249.06,4.25,7.69,-13.88,-0.09,-0.04,0.10,141.44,-44.06,16.56,-3.69,-7.81,4.31,4,7
1772725208.433608,4098628,-0.05,0.05,0.08,-59.88,-72.31,249.62,4.25,12.56,-8.06,-0.04,-0.12,0.00,141.50,-44.44,15.94,-0.88,-7.50,6.50,4,9
1772725208.433888,4098667,0.10,0.27,0.08,-61.25,-72.69,249.81,4.75,14.50,-3.81,0.13,-0.05,-0.03,141.44,-44.81,15.38,2.56,-8.50,7.62,4,8
1772725208.434153,4098707,-0.01,0.48,0.18,-62.44,-73.00,250.00,7.56,15.00,-6.56,-0.12,-0.05,0.09,141.37,-45.31,14.94,3.31,-9.69,9.06,4,7
1772725208.434428,4098748,0.02,0.45,0.26,-64.12,-73.50,250.37,10.94,17.87,-12.31,0.17,0.12,-0.08,141.37,-45.81,14.25,0.69,-9.81,8.31,4,7
1772725208.434808,4098789,-0.08,0.26,0.33,-65.94,-74.12,251.06,14.94,22.50,-20.75,-0.08,-0.07,-0.07,141.37,-46.31,13.56,-0.44,-10.56,9.00,4,7
1772725208.435093,4098829,-0.02,-0.12,0.28,-69.31,-75.56,252.56,16.75,28.25,-25.25,-0.07,0.06,-0.03,141.44,-46.88,12.81,-1.87,-9.63,9.63,3,4
1772725208.435380,4098868,-0.24,-0.36,0.11,-73.25,-76.87,253.87,16.12,32.31,-24.94,-0.11,-0.05,0.02,141.56,-47.38,12.00,1.25,-7.87,11.38,4,6
1772725208.435675,4098908,-0.05,-0.53,0.03,-77.25,-77.81,254.75,14.00,36.06,-20.37,-0.19,-0.07,0.14,141.69,-47.94,11.44,3.62,-7.56,12.94,3,6
1772725208.435963,4098949,0.02,-0.62,-0.13,-83.94,-78.69,255.62,10.94,36.38,-12.69,-0.06,0.01,0.10,141.75,-48.50,10.88,5.31,-6.75,14.31,3,6
1772725208.436246,4098990,-0.03,-0.59,-0.23,-91.50,-79.12,256.12,7.94,38.44,-3.69,0.00,-0.05,0.03,141.87,-49.00,10.56,8.75,-1.75,16.44,2,6
1772725208.436527,4099030,0.30,-0.59,-0.38,-101.62,-78.87,256.00,4.69,40.19,5.06,0.01,-0.11,0.00,142.06,-49.44,10.56,18.56,2.44,22.12,2,5
1772725208.436799,4099069,0.51,-0.42,-0.52,-108.12,-78.12,255.44,0.25,35.50,13.06,-0.16,-0.11,0.02,142.12,-49.94,11.00,22.31,0.13,22.06,2,4
1772725208.437075,4099108,0.31,-0.34,-0.62,-111.25,-77.44,254.75,-3.06,25.56,14.63,-0.45,0.00,0.33,142.00,-50.44,11.31,13.06,-4.75,13.44,2,5
1772725208.437354,4099150,-0.04,-0.30,-0.65,-113.81,-76.62,253.87,-5.81,19.69,7.75,-0.42,0.18,0.51,141.81,-50.75,11.13,-10.06,-9.56,-4.25,2,6
1772725208.437616,4099190,-0.06,-0.54,-0.66,-116.19,-76.19,253.25,-10.38,22.31,-2.19,-0.76,0.24,0.73,141.94,-51.06,9.81,-31.37,-13.00,-8.69,2,6
1772725208.437878,4099231,-0.14,-0.42,-0.71,-122.31,-75.81,252.75,-18.50,28.25,-5.62,-0.55,0.46,0.35,142.56,-51.38,7.50,-35.63,-12.38,-9.06,3,6
1772725208.438138,4099270,0.01,-0.14,-0.77,-126.37,-75.31,251.81,-22.94,33.69,-5.37,-0.94,0.27,0.49,143.12,-51.56,5.56,-27.31,-11.56,-7.69,2,6
1772725208.438460,4099309,0.27,-0.11,-0.73,-129.25,-74.75,250.94,-22.37,33.63,-3.19,-0.27,0.19,0.12,143.50,-51.88,3.94,-19.44,-6.00,-6.75,3,6
1772725208.444935,4099351,0.63,-0.12,-0.62,-131.87,-73.94,249.69,-20.75,28.81,4.31,0.01,-0.07,-0.10,143.62,-51.75,3.69,2.00,5.37,-1.81,2,6
1772725208.485138,4099391,0.65,-0.01,-0.46,-132.81,-73.12,248.25,-18.00,15.94,11.69,0.44,-0.40,-0.25,143.69,-51.50,4.00,-0.13,6.44,-2.00,2,6
1772725208.525203,4099431,0.67,0.06,-0.34,-131.81,-72.19,246.37,-17.00,3.25,17.44,0.41,-0.44,-0.44,143.75,-51.25,4.44,1.94,5.81,-0.50,2,6
1772725208.564655,4099470,0.51,0.08,-0.14,-129.31,-71.75,244.94,-17.31,-12.44,16.62,0.36,-0.28,-0.07,143.81,-51.00,4.62,-7.81,1.25,-3.31,2,7
1772725208.604227,4099510,0.08,-0.29,0.04,-126.56,-71.75,244.00,-20.75,-22.37,15.88,0.49,-0.03,-0.58,144.06,-50.75,4.44,-7.12,2.25,-2.87,2,5
1772725208.645637,4099551,0.35,-0.42,0.17,-122.12,-71.69,242.56,-26.75,-25.87,22.56,-0.18,-0.12,0.06,144.12,-50.75,4.37,-0.75,-2.19,1.94,1,5
1772725208.686066,4099592,-0.33,-0.07,0.56,-116.50,-71.37,240.69,-27.56,-31.56,28.19,-0.40,0.05,0.34,144.19,-50.81,4.12,-4.44,0.37,-0.75,1,5
1772725208.725909,4099632,-0.83,0.19,0.66,-110.62,-70.62,238.37,-23.75,-14.19,27.19,-0.35,0.20,0.23,144.31,-50.81,3.94,0.69,3.19,-2.00,1,5
1772725208.764938,4099671,-0.59,0.30,0.49,-108.50,-69.75,236.56,-20.50,0.94,22.87,-0.38,0.16,0.17,144.25,-50.81,4.00,0.75,2.19,-3.87,1,4
1772725208.804756,4099711,-0.26,0.26,0.28,-107.94,-69.19,235.37,-18.37,9.75,16.44,-0.15,0.11,0.05,144.12,-50.75,4.06,-1.62,1.62,-6.25,1,3
1772725208.846371,4099752,-0.07,0.34,0.17,-107.87,-68.44,233.87,-15.88,15.00,12.81,-0.07,-0.02,0.03,144.00,-50.63,4.25,-1.50,1.62,-5.56,1,5
1772725208.886483,4099792,0.37,0.31,0.04,-108.44,-67.87,232.62,-11.38,13.81,8.00,0.22,-0.11,-0.22,143.87,-50.44,4.37,-3.94,1.37,-5.87,1,5
1772725208.926939,4099833,0.45,0.35,-0.07,-108.87,-67.37,231.62,-7.25,6.81,5.75,0.37,-0.17,-0.32,143.87,-50.19,4.50,-4.37,0.19,-4.81,1,4
1772725208.965927,4099872,0.43,0.36,-0.14,-108.62,-67.00,231.00,-3.75,-3.44,3.50,0.32,-0.18,-0.28,143.87,-49.94,4.69,-2.31,-0.62,-2.56,2,3
1772725209.006846,4099913,0.27,0.33,-0.05,-107.94,-66.87,230.81,-0.62,-11.81,0.25,0.19,-0.04,-0.18,143.81,-49.75,4.75,0.56,-1.06,-0.44,3,4
1772725209.047350,4099953,0.02,0.40,0.18,-106.69,-66.87,230.94,2.87,-17.31,-2.12,0.00,-0.14,0.10,143.75,-49.75,4.87,1.44,-2.00,-0.13,3,4
1772725209.087523,4099993,-0.05,0.24,0.28,-105.31,-67.31,231.75,9.56,-15.69,-4.87,-0.24,-0.06,0.26,143.62,-49.81,4.94,1.44,-1.00,-1.25,4,5
1772725209.127590,4100033,-0.16,-0.02,0.17,-104.69,-67.56,232.56,11.81,-10.31,-3.69,-0.33,-0.13,0.29,143.37,-49.88,5.06,0.81,0.37,-2.00,3,5
1772725209.166562,4100072,-0.20,-0.16,0.14,-104.56,-67.75,233.19,10.38,-4.69,-0.88,-0.28,-0.16,0.28,143.19,-49.88,5.19,1.19,1.50,-1.19,4,5
1772725209.206203,4100112,-0.17,-0.18,0.04,-104.62,-67.81,233.50,6.06,-0.13,2.31,-0.29,-0.15,0.21,143.06,-49.88,5.37,1.25,2.37,-0.25,4,5
1772725209.247192,4100153,0.05,-0.18,0.00,-104.75,-67.69,233.56,0.81,1.12,3.75,-0.09,-0.13,0.17,143.00,-49.81,5.56,0.62,2.69,0.25,3,3
1772725209.287958,4100194,0.20,-0.09,-0.08,-104.69,-67.56,233.37,-4.00,0.19,4.12,-0.02,-0.12,0.05,143.06,-49.75,5.62,-0.94,2.50,-0.31,3,3
1772725209.328683,4100234,0.29,-0.03,-0.06,-104.25,-67.37,232.94,-6.50,-2.62,3.62,0.05,-0.11,-0.02,143.19,-49.69,5.62,-1.50,2.62,-0.62,3,3
1772725209.367394,4100273,0.26,0.11,-0.03,-103.50,-67.31,232.69,-5.62,-7.25,1.37,0.07,-0.09,-0.09,143.25,-49.56,5.69,-2.25,1.69,-0.81,3,3
1772725209.407181,4100313,0.09,0.09,0.04,-102.69,-67.37,232.62,-3.12,-12.00,0.56,0.07,-0.06,-0.11,143.37,-49.50,5.62,-1.75,1.19,-0.13,2,6
1772725209.448226,4100354,-0.01,0.09,0.12,-101.37,-67.44,232.75,-0.37,-14.50,-0.31,0.06,-0.03,-0.12,143.44,-49.44,5.62,-0.06,1.00,1.00,2,5
1772725209.488321,4100394,-0.04,0.07,0.20,-99.75,-67.62,233.12,2.19,-13.50,-1.81,0.01,0.00,-0.01,143.50,-49.44,5.56,0.44,0.13,1.25,1,5
1772725209.528834,4100435,-0.04,-0.07,0.19,-98.69,-67.81,233.50,3.87,-12.06,-3.25,-0.04,0.00,0.00,143.56,-49.50,5.50,-0.13,0.37,0.94,1,5
1772725209.569060,4100475,-0.27,-0.11,0.19,-97.81,-68.00,234.00,4.00,-9.00,-3.50,-0.09,0.01,0.06,143.56,-49.50,5.50,-0.37,0.13,0.69,1,5
1772725209.609236,4100515,-0.19,-0.18,0.14,-97.31,-68.25,234.37,2.75,-4.50,-3.25,-0.08,0.00,0.07,143.62,-49.50,5.44,-0.06,0.13,0.50,1,6
1772725209.649444,4100555,-0.03,-0.17,0.09,-97.12,-68.37,234.62,1.44,-1.69,-1.94,-0.10,-0.06,0.06,143.56,-49.56,5.44,0.31,0.69,-0.19,1,6
1772725209.689715,4100595,0.05,-0.21,0.05,-97.06,-68.50,234.75,-0.13,-1.56,-0.62,-0.04,-0.07,0.03,143.56,-49.50,5.50,-0.81,1.00,-1.31,1,6
1772725209.729567,4100635,0.06,-0.18,0.02,-96.81,-68.50,234.75,-1.81,-1.62,0.94,0.01,-0.07,0.00,143.56,-49.44,5.50,-1.81,0.06,-1.94,1,6
1772725209.768656,4100674,0.05,-0.11,0.03,-96.62,-68.50,234.69,-2.81,-0.44,0.81,-0.06,-0.04,0.00,143.56,-49.44,5.50,-2.12,0.00,-2.00,1,6
1772725209.808425,4100714,0.02,-0.05,0.02,-96.31,-68.44,234.56,-4.06,-3.12,1.75,0.07,-0.10,-0.06,143.56,-49.38,5.44,-2.19,0.13,-2.37,1,2
1772725209.849456,4100755,0.06,0.02,0.07,-95.87,-68.37,234.37,-3.37,-2.69,1.37,0.01,0.02,-0.04,143.56,-49.31,5.37,-1.50,-0.44,-1.56,1,3
1772725209.890244,4100796,-0.03,0.12,0.13,-95.31,-68.37,234.25,-2.50,-2.94,0.50,-0.05,-0.03,-0.05,143.56,-49.25,5.37,0.00,0.94,-0.81,1,3
1772725209.930152,4100836,0.01,0.14,0.09,-95.00,-68.37,234.19,-1.00,-1.94,0.88,-0.02,0.01,0.03,143.56,-49.19,5.50,1.87,2.69,0.19,1,2
1772725209.968898,4100875,0.05,0.16,0.04,-94.81,-68.31,234.19,1.50,-1.19,0.62,0.00,-0.07,0.00,143.50,-49.13,5.69,2.31,2.00,0.19,1,2
1772725210.010048,4100916,0.05,0.00,0.00,-94.81,-68.31,234.25,3.06,-2.37,-1.19,-0.03,-0.13,0.00,143.50,-49.13,5.87,0.25,1.00,0.06,1,2
1772725210.050886,4100957,0.10,-0.02,0.00,-94.56,-68.37,234.50,1.75,-3.50,-0.25,0.03,-0.13,0.04,143.50,-49.06,5.94,-0.19,0.37,-0.13,1,3
1772725210.090726,4100997,0.11,0.07,0.00,-94.19,-68.37,234.56,0.31,-4.50,-0.13,0.00,-0.13,0.04,143.50,-49.06,5.94,-0.25,0.25,-0.62,1,3
1772725210.131069,4101037,0.12,0.10,0.01,-93.69,-68.37,234.62,0.37,-5.56,-1.31,-0.03,-0.13,0.00,143.44,-49.06,5.94,-1.50,-0.19,-1.00,1,3
1772725210.169955,4101076,0.09,0.17,0.06,-93.06,-68.44,234.81,1.00,-6.25,-1.25,0.00,-0.07,0.02,143.44,-49.00,5.94,-1.50,1.00,-0.62,1,3
1772725210.209768,4101116,0.03,0.27,0.05,-92.62,-68.50,234.94,2.94,-6.37,-3.06,0.01,-0.04,-0.07,143.50,-48.94,5.94,-0.44,1.06,-0.19,1,6
1772725210.250785,4101157,0.03,0.29,0.04,-92.19,-68.62,235.31,6.44,-6.12,-5.81,0.00,-0.02,-0.01,143.56,-48.94,5.94,-0.37,1.00,0.44,1,5
1772725210.291541,4101197,0.07,0.11,0.01,-91.81,-68.94,236.06,9.31,-6.25,-7.94,0.00,-0.04,-0.06,143.56,-48.94,6.00,-0.44,0.37,0.69,1,5
1772725210.331644,4101238,0.07,-0.06,0.00,-91.50,-69.25,236.87,11.06,-6.87,-9.44,-0.02,-0.06,0.00,143.62,-48.94,5.94,-0.56,0.06,0.75,2,5
1772725210.371697,4101278,0.04,-0.18,0.06,-91.12,-69.62,237.75,10.38,-8.88,-9.31,-0.04,-0.09,0.01,143.62,-48.94,5.87,-0.06,0.00,1.12,2,6
1772725210.411954,4101318,-0.05,-0.26,0.08,-90.56,-70.00,238.56,8.56,-7.50,-7.56,-0.04,-0.07,0.05,143.69,-48.94,5.87,0.31,0.13,1.00,2,6
1772725210.452483,4101358,-0.03,-0.25,0.10,-90.19,-70.31,239.19,6.25,-4.37,-5.62,-0.01,-0.09,0.06,143.75,-48.94,5.81,-0.13,0.50,0.13,2,5
1772725210.492354,4101398,0.01,-0.27,0.07,-89.87,-70.50,239.62,3.44,-3.44,-2.81,0.01,-0.02,-0.01,143.75,-48.94,5.81,-1.19,0.31,-0.69,2,5
1772725210.532493,4101438,0.10,-0.34,0.01,-89.56,-70.62,239.87,0.31,-3.00,-1.94,0.00,-0.07,-0.10,143.81,-48.94,5.75,-1.75,0.75,-0.50,2,5
1772725210.571898,4101477,-0.20,-0.18,0.13,-88.87,-70.75,239.94,-4.19,-4.56,-0.75,0.00,-0.08,-0.06,143.87,-48.94,5.62,-2.56,-0.88,-0.56,2,5
1772725210.612675,4101518,-0.04,-0.09,0.12,-88.44,-70.75,239.81,-5.31,-0.81,0.06,-0.08,0.05,0.04,143.87,-48.94,5.50,-0.13,0.62,1.00,2,4
1772725210.652629,4101559,0.10,0.03,0.06,-88.12,-70.75,239.56,-5.12,1.06,1.12,0.11,-0.02,-0.05,144.00,-48.94,5.50,0.44,2.44,0.94,2,5
1772725210.692754,4101599,0.02,0.02,0.00,-88.19,-70.69,239.37,-2.56,2.44,0.75,-0.02,-0.07,-0.01,144.06,-48.88,5.56,1.00,1.12,1.06,2,5
1772725210.733147,4101639,0.05,-0.08,-0.05,-88.31,-70.69,239.25,-2.81,0.75,1.81,-0.05,-0.06,-0.02,144.06,-48.88,5.62,1.31,1.25,1.31,1,5
1772725210.773464,4101679,0.10,-0.06,-0.01,-88.12,-70.62,239.00,-3.56,-0.94,2.44,0.00,-0.06,0.03,144.12,-48.88,5.69,-0.19,-0.06,-0.44,1,4
1772725210.817667,4101718,0.16,-0.09,-0.03,-87.87,-70.50,238.81,-4.25,-0.94,1.69,-0.01,-0.04,0.05,144.06,-48.88,5.62,-1.06,-0.75,-1.12,1,4
1772725210.853368,4101759,0.09,-0.04,0.03,-87.62,-70.44,238.62,-4.75,-2.12,3.19,-0.05,-0.05,-0.01,144.06,-48.88,5.62,-0.37,0.37,-1.00,2,5
1772725210.893501,4101799,-0.12,0.14,0.06,-87.12,-70.25,238.31,-4.50,-2.12,4.31,-0.07,-0.06,0.00,144.06,-48.88,5.62,0.37,0.25,-0.56,2,5
1772725210.933831,4101840,-0.14,0.17,0.10,-86.87,-70.12,238.00,-3.44,-0.25,2.81,-0.02,-0.06,-0.01,144.06,-48.81,5.62,0.50,1.06,-0.88,2,5
1772725210.973877,4101880,0.12,0.12,0.02,-86.81,-70.00,237.81,-2.06,0.69,1.31,0.04,-0.05,-0.01,144.00,-48.81,5.69,-0.13,0.94,-0.88,2,5
1772725211.013947,4101920,0.10,0.13,0.00,-86.75,-70.00,237.75,-0.88,-0.50,0.31,0.03,-0.09,-0.02,144.00,-48.75,5.75,-0.37,0.69,-0.75,2,3
1772725211.054334,4101960,0.08,0.09,0.00,-86.62,-70.00,237.75,0.44,-1.56,-0.37,0.00,-0.08,0.02,144.00,-48.75,5.81,-0.13,0.37,-0.37,2,3
1772725211.094311,4102000,0.05,0.11,0.00,-86.50,-70.00,237.81,2.00,-1.62,-1.12,-0.02,-0.09,0.01,144.00,-48.75,5.81,-0.62,0.56,-0.69,2,4
1772725211.134521,4102040,0.11,0.03,0.03,-86.44,-70.00,238.00,2.50,-1.62,-1.19,0.00,-0.07,-0.02,144.00,-48.69,5.81,-0.13,1.00,-0.69,2,6
1772725211.174516,4102081,0.06,0.12,0.02,-86.31,-70.06,238.12,2.37,-1.56,-1.62,-0.03,-0.09,0.01,144.00,-48.69,5.87,0.75,2.25,-0.31,2,6
1772725211.213556,4102120,0.01,0.09,0.00,-86.25,-70.19,238.31,2.31,-0.88,-3.81,-0.03,-0.08,-0.03,144.06,-48.56,6.00,1.19,2.62,-0.75,2,8
1772725211.254633,4102161,0.07,0.09,0.00,-86.19,-70.31,238.50,2.31,-1.25,-4.44,-0.03,-0.11,0.00,144.00,-48.44,6.25,1.75,1.81,-1.25,2,6
1772725211.294953,4102201,0.08,0.00,0.03,-86.06,-70.50,238.87,2.44,-1.06,-5.00,0.03,-0.09,-0.03,143.94,-48.38,6.44,0.37,1.62,-2.06,2,6
1772725211.335323,4102241,0.16,-0.09,-0.06,-85.94,-70.69,239.19,1.44,-2.06,-4.81,0.08,-0.17,-0.08,143.94,-48.31,6.56,0.19,1.75,-2.19,2,7
1772725211.374419,4102280,0.24,-0.04,-0.15,-85.50,-70.87,239.37,-0.50,-5.19,-3.75,0.08,-0.09,-0.09,143.87,-48.19,6.69,0.56,2.31,-1.87,2,7
1772725211.413921,4102320,0.25,0.15,-0.26,-84.87,-70.94,239.50,-1.44,-9.94,-4.75,0.05,-0.07,-0.16,143.87,-48.06,6.87,1.56,2.62,-1.25,2,9
1772725211.455299,4102361,0.36,0.06,-0.44,-83.69,-71.06,239.81,-1.87,-14.31,-7.94,0.05,-0.04,-0.12,143.81,-47.94,7.12,2.12,2.19,-0.50,2,9
1772725211.495490,4102401,0.57,0.13,-0.48,-80.87,-71.37,240.37,-4.87,-24.87,-11.81,-0.09,0.01,-0.02,143.81,-47.88,7.37,1.62,2.75,0.00,1,8
1772725211.544353,4102442,0.36,0.10,-0.42,-77.31,-71.62,240.94,-7.81,-34.19,-15.75,-0.12,0.00,0.06,143.81,-47.81,7.56,1.56,3.37,0.44,2,8
1772725211.575005,4102481,0.12,0.17,-0.25,-72.06,-72.00,241.75,-10.69,-38.38,-21.06,-0.22,0.04,0.22,143.87,-47.69,7.75,1.69,3.62,0.81,2,8
1772725211.614768,4102520,-0.08,0.27,-0.07,-67.81,-72.25,242.44,-8.81,-36.56,-25.56,-0.26,-0.01,0.25,143.81,-47.63,8.06,4.25,5.31,0.56,2,7
1772725211.656215,4102562,-0.22,0.03,0.14,-62.25,-72.56,243.62,-2.75,-32.81,-26.00,-0.31,-0.01,0.15,143.69,-47.50,8.44,2.00,7.37,-3.44,3,9
1772725211.696438,4102602,-0.49,-0.16,0.36,-56.31,-72.87,245.06,1.50,-26.19,-22.44,-0.41,-0.01,0.06,143.62,-47.19,8.94,-3.00,11.63,-10.75,3,9
1772725211.736667,4102642,-0.55,-0.30,0.44,-53.00,-73.00,246.12,5.19,-16.50,-16.62,-0.01,-0.05,-0.11,143.62,-46.69,9.63,0.75,9.94,-8.75,3,8
1772725211.775934,4102681,-0.24,-0.42,0.36,-51.25,-73.12,246.87,8.44,-8.44,-8.56,-0.01,-0.11,-0.02,143.56,-46.13,10.31,-2.06,9.75,-9.81,4,8
1772725211.815241,4102721,-0.06,-0.47,0.27,-50.69,-73.06,247.25,9.06,-6.62,-1.50,0.30,0.01,-0.22,143.56,-45.69,10.81,-1.81,8.00,-7.00,4,6
1772725211.856646,4102762,-0.08,-0.12,0.35,-50.13,-72.94,247.62,7.37,-6.37,1.12,0.18,-0.10,-0.30,143.69,-45.31,11.19,-3.69,6.87,-3.62,4,9
1772725211.896760,4102803,0.02,0.13,0.42,-49.75,-72.69,247.87,6.44,-7.06,2.69,0.16,-0.29,-0.31,143.94,-44.94,11.44,-1.81,5.37,1.25,4,9
1772725211.937117,4102843,-0.14,0.49,0.39,-49.50,-72.37,248.00,5.19,-6.12,2.00,0.22,-0.23,-0.06,144.12,-44.75,11.56,-4.75,3.94,3.06,4,7
1772725211.976382,4102882,-0.40,0.63,0.18,-49.25,-72.37,248.31,6.31,-1.44,-5.31,-0.03,-0.06,-0.13,144.69,-44.75,10.94,-11.81,2.50,12.00,4,7
1772725212.015757,4102922,-0.14,0.41,0.20,-49.06,-72.56,248.62,7.31,4.81,-11.19,0.00,-0.03,-0.23,145.56,-44.94,9.88,-7.69,3.37,14.75,3,7
1772725212.057140,4102963,-0.20,0.35,0.24,-49.00,-73.00,249.31,10.50,7.06,-15.56,0.43,0.09,-0.36,146.31,-45.13,9.25,5.25,4.44,19.06,2,5
1772725212.097395,4103004,0.11,-0.12,0.41,-49.06,-73.94,250.62,19.19,11.38,-17.06,0.57,0.17,-0.38,146.69,-45.50,9.13,15.38,-0.56,22.19,2,7
1772725212.137663,4103044,0.17,-0.05,1.05,-50.25,-74.75,251.81,26.69,17.25,-12.00,0.43,-0.02,0.00,146.75,-46.00,9.25,11.38,-7.12,19.19,3,7
1772725212.177313,4103083,-0.32,-0.10,1.19,-53.13,-75.56,253.06,33.38,26.75,-8.63,0.18,0.21,0.06,146.75,-46.50,9.13,10.94,-7.19,9.75,3,8
1772725212.216723,4103123,-0.11,-0.67,0.64,-58.19,-76.56,254.31,37.00,37.13,-7.69,0.10,-0.19,0.16,146.37,-46.88,9.31,8.56,-8.38,2.69,4,9
1772725212.258249,4103164,0.72,-1.36,-0.15,-63.19,-77.25,255.12,29.31,36.31,0.69,-0.04,-0.20,-0.01,145.81,-47.19,9.56,9.50,-8.94,-4.25,3,7
1772725212.298314,4103204,0.21,-1.32,-0.52,-71.00,-77.50,255.44,13.69,26.19,13.19,0.24,-0.09,-0.29,145.00,-47.38,10.19,15.00,-5.62,-5.56,5,9
1772725212.338586,4103244,0.42,-0.89,-0.86,-75.62,-76.94,254.56,-2.56,17.50,25.75,-0.18,-0.02,-0.03,144.06,-47.50,11.31,24.94,-3.81,6.19,5,9
1772725212.377383,4103284,0.75,-0.57,-1.03,-78.06,-76.00,253.06,-13.75,8.13,27.06,-0.15,0.23,0.05,143.19,-47.75,12.63,31.12,-2.62,6.00,5,10
1772725212.417410,4103323,0.74,-0.49,-1.26,-78.56,-75.31,251.81,-19.19,-1.44,24.06,0.21,0.00,-0.02,142.00,-47.81,14.38,30.12,-1.06,-5.12,6,11
1772725212.458976,4103365,1.10,-0.96,-1.43,-77.44,-74.37,250.31,-24.62,-19.37,19.31,-0.03,-0.05,-0.08,140.62,-47.81,16.00,17.19,-8.75,-11.50,6,15
1772725212.499289,4103405,1.10,-0.54,-0.85,-71.75,-73.06,248.50,-33.38,-46.56,20.75,-0.42,0.25,-0.18,139.25,-47.75,17.31,26.56,-7.37,-13.50,5,20
1772725212.539270,4103445,-0.68,0.42,0.08,-64.00,-71.31,247.06,-37.44,-75.00,21.12,-0.71,0.32,0.01,137.50,-47.56,19.25,24.94,-8.81,-15.81,5,27
1772725212.578938,4103485,-1.65,0.81,0.69,-56.75,-69.62,246.31,-27.75,-58.63,2.37,-0.74,0.28,0.15,135.81,-47.44,20.69,6.50,-15.13,-27.25,5,30
1772725212.618481,4103524,-0.83,0.27,0.62,-52.69,-68.94,246.25,-13.81,-24.94,-4.44,-0.69,0.38,0.48,134.69,-46.81,21.37,-11.19,-1.94,-38.00,5,30
1772725212.659583,4103566,0.07,0.57,0.29,-51.50,-68.69,246.12,-7.19,-5.75,3.37,0.24,-0.19,0.22,134.75,-45.38,22.37,-13.56,23.44,-28.69,5,31
1772725212.699672,4103606,0.54,1.13,0.17,-51.63,-68.37,245.62,-2.56,-0.37,9.13,0.75,-0.82,0.07,135.06,-44.13,23.75,3.06,16.94,-12.06,4,29
1772725212.739857,4103646,0.71,1.49,0.43,-51.81,-68.06,245.37,2.00,-7.12,6.31,0.43,-0.82,-0.13,135.00,-43.56,24.75,4.69,6.62,-1.87,3,30
1772725212.778629,4103685,-0.19,1.54,1.00,-51.31,-67.75,245.50,6.31,-11.56,0.13,0.30,-0.64,0.02,134.81,-43.25,25.56,0.75,2.31,1.50,4,29
1772725212.818505,4103725,-0.32,1.12,1.01,-51.00,-67.75,245.94,10.88,1.62,-9.75,0.10,-0.43,0.10,134.69,-43.00,26.12,-0.50,5.31,2.19,4,29
1772725212.860144,4103766,-0.52,0.94,0.84,-51.31,-68.25,246.69,16.19,15.13,-15.00,-0.05,-0.44,0.20,134.69,-42.88,26.50,-1.69,7.12,3.75,5,28
1772725212.900136,4103806,-0.12,0.41,0.41,-53.19,-69.50,247.94,21.25,28.25,-16.56,0.11,-0.41,0.04,134.87,-42.69,26.81,-5.00,7.12,3.37,6,25
1772725212.940412,4103847,0.62,0.10,0.12,-55.94,-70.75,248.87,20.37,33.94,-14.88,0.13,-0.31,-0.09,135.25,-42.44,26.94,-4.87,5.25,6.31,6,21
1772725212.979663,4103886,0.63,-0.24,-0.16,-58.50,-71.81,249.69,14.56,23.62,-12.88,0.13,-0.35,-0.13,135.69,-42.38,26.81,-7.19,6.75,6.87,6,17
1772725213.019323,4103925,0.09,-0.24,-0.26,-59.50,-72.37,250.12,4.44,12.88,-10.94,0.06,-0.02,-0.19,136.37,-42.56,26.19,-6.56,3.12,14.50,7,18
1772725213.060622,4103967,0.57,-0.14,-0.38,-60.25,-72.94,250.50,-3.19,10.13,-10.56,0.20,0.02,-0.10,137.06,-42.88,25.44,-4.31,2.81,17.37,7,18
1772725213.101170,4104007,0.62,-0.23,-0.42,-60.06,-73.56,250.75,-5.87,2.87,-11.69,0.04,-0.01,0.07,137.81,-43.19,24.69,-4.31,6.56,14.38,7,20
1772725213.141524,4104047,0.30,-0.22,-0.37,-59.00,-74.00,251.00,-8.88,-3.37,-11.00,-0.03,0.04,-0.10,138.56,-43.31,24.06,-10.50,7.19,12.25,6,20
1772725213.181257,4104087,-0.05,-0.18,-0.25,-57.31,-74.31,251.19,-9.69,-4.19,-12.88,-0.32,0.14,-0.16,139.50,-43.38,23.25,-14.31,5.12,6.94,6,19
1772725213.220326,4104126,0.20,-0.18,-0.18,-55.31,-74.56,251.44,-8.75,-7.00,-12.31,-0.03,0.36,-0.28,140.25,-43.44,22.44,-10.63,4.44,5.69,6,19
1772725213.261554,4104167,0.15,-0.15,-0.19,-53.69,-74.75,251.62,-5.06,-8.69,-10.56,0.22,0.36,-0.35,140.75,-43.50,21.87,-0.25,0.75,7.50,5,18
1772725213.301731,4104208,0.12,-0.28,-0.22,-51.63,-74.94,252.06,-0.75,-6.12,-7.37,0.02,0.25,-0.23,141.00,-43.63,21.81,8.56,0.06,11.06,5,16
1772725213.342077,4104248,1.06,-0.62,-0.47,-49.94,-74.87,252.31,-2.12,-14.88,-4.19,-0.27,0.24,0.19,141.00,-43.88,22.06,12.44,1.37,8.69,4,14
1772725213.381478,4104288,-0.45,-0.45,0.09,-46.81,-74.37,252.50,-5.81,-26.44,-3.87,-0.46,0.13,0.18,140.75,-44.00,22.44,7.69,2.50,1.81,3,14
1772725213.421056,4104327,-0.90,-0.06,0.37,-44.25,-73.94,252.50,-7.19,-13.75,-3.12,-0.50,0.31,0.03,140.69,-43.88,22.81,2.19,4.94,-3.06,3,13
1772725213.462680,4104368,-0.45,-0.10,0.25,-43.19,-73.87,252.56,-3.87,-4.19,-6.12,-0.54,0.26,-0.02,140.75,-43.94,22.75,-1.19,3.87,-7.31,3,11
1772725213.502682,4104409,0.00,-0.11,0.11,-42.19,-73.94,252.69,-1.37,-0.06,-3.81,-0.09,0.25,0.06,140.75,-43.69,22.81,-4.44,3.00,-11.69,3,10
1772725213.542649,4104449,-0.35,0.21,0.23,-42.31,-74.06,252.81,3.69,5.69,-0.88,0.00,0.19,-0.07,140.62,-43.31,23.19,-1.44,2.81,-9.13,3,9
1772725213.581603,4104488,-0.75,0.38,0.41,-43.94,-74.44,253.06,13.38,18.44,-0.13,0.05,0.17,-0.16,140.50,-43.06,23.56,0.75,2.56,-6.31,2,9
1772725213.621325,4104527,-0.32,0.48,0.32,-46.44,-75.00,253.37,23.56,32.56,0.44,-0.03,-0.07,-0.16,140.31,-42.75,24.12,4.62,4.62,-8.50,2,8
1772725213.662843,4104569,0.18,-0.10,0.20,-51.13,-75.81,253.94,25.31,31.81,-1.69,0.48,-0.22,-0.40,140.31,-42.25,24.75,-6.00,14.19,-10.94,2,6
1772725213.703269,4104609,1.23,-0.51,-0.25,-56.69,-76.62,254.62,16.37,22.37,0.94,0.26,-0.09,-0.31,140.37,-41.94,25.25,3.12,7.75,-0.94,2,5
1772725213.743264,4104649,0.52,-0.32,-0.24,-58.44,-76.75,254.75,3.06,1.81,2.94,0.16,-0.08,-0.36,140.50,-41.56,25.94,3.75,7.37,3.25,2,5
1772725213.782867,4104688,-0.04,-0.06,-0.11,-57.75,-76.62,254.62,-5.69,-7.62,-0.44,-0.07,-0.08,-0.37,140.62,-41.44,26.37,6.31,4.50,6.25,3,7
1772725213.822388,4104728,-0.27,0.01,0.12,-56.44,-76.50,254.56,-5.62,-8.81,-4.12,-0.05,-0.11,-0.17,140.75,-41.38,26.56,-0.50,4.12,4.06,2,6
1772725213.863853,4104770,-0.21,-0.05,0.18,-54.81,-76.44,254.62,-3.00,-6.37,-2.31,-0.09,0.09,-0.12,141.00,-41.38,26.50,-2.25,4.06,3.62,2,6
1772725213.903954,4104810,0.00,-0.26,0.15,-53.50,-76.37,254.69,-1.44,-4.50,-0.37,-0.09,0.06,-0.09,141.31,-41.38,26.25,-3.56,3.31,4.56,2,6
1772725213.944145,4104850,0.33,-0.48,-0.29,-52.81,-76.19,254.50,-5.37,-7.25,3.44,0.04,-0.06,-0.21,141.56,-41.38,26.12,1.87,4.50,6.00,2,6
1772725213.983250,4104889,0.06,-0.05,-0.28,-51.63,-75.75,254.12,-9.44,-13.00,5.56,-0.08,0.03,-0.14,141.75,-41.44,26.25,4.69,1.19,8.63,2,7
1772725214.022855,4104929,0.17,-0.02,-0.35,-50.44,-75.44,253.87,-8.19,-14.13,1.25,-0.10,0.11,0.00,141.75,-41.63,26.19,3.69,-1.37,5.37,2,7
1772725214.064251,4104970,0.55,-0.16,-0.34,-48.44,-75.06,253.69,-9.75,-22.19,-0.75,0.03,0.08,-0.05,141.75,-41.75,26.06,0.00,-3.25,2.44,3,7
1772725214.104665,4105010,-0.12,0.00,0.07,-44.31,-74.12,253.50,-12.38,-31.44,-1.69,-0.07,0.07,-0.10,141.81,-41.94,25.75,-0.69,-3.37,2.00,2,7
1772725214.144701,4105051,-0.59,0.16,0.50,-41.19,-73.56,253.50,-8.94,-18.87,-6.00,-0.13,0.09,0.04,141.75,-42.06,25.50,1.37,-3.12,0.06,2,7
1772725214.184154,4105090,-0.59,0.06,0.59,-39.44,-73.37,253.62,-3.62,-7.50,-4.62,-0.17,-0.04,0.08,141.62,-42.19,25.44,-1.56,-1.50,-2.06,2,8
1772725214.223482,4105130,-0.44,0.04,0.34,-39.06,-73.37,253.62,0.69,4.31,1.44,-0.24,-0.11,0.07,141.69,-42.13,25.31,-4.06,0.94,-2.94,2,7
1772725214.264756,4105171,-0.09,-0.07,0.03,-40.00,-73.50,253.56,2.87,11.75,4.81,0.00,-0.19,0.01,141.75,-41.94,25.31,-5.50,4.06,-3.94,3,9
1772725214.305333,4105211,0.18,0.10,0.00,-42.13,-73.75,253.19,-0.62,11.31,7.00,0.11,-0.22,-0.02,141.87,-41.88,25.31,-0.75,-0.69,0.44,5,9
1772725214.345392,4105251,-0.05,0.22,-0.01,-43.38,-73.81,252.87,-2.94,7.44,4.56,-0.14,0.07,0.13,141.75,-41.94,25.31,5.06,-2.81,2.44,4,9
1772725214.384865,4105291,-0.45,0.33,-0.10,-44.38,-73.94,252.56,-2.19,9.13,3.37,0.00,0.13,0.00,141.50,-42.13,25.44,4.31,-5.25,-0.75,5,8
1772725214.424329,4105330,0.11,-0.04,-0.09,-45.63,-74.25,252.50,3.44,11.25,-0.56,-0.43,0.00,0.17,141.25,-42.31,25.25,-1.62,-7.75,-1.25,6,8
1772725214.465637,4105372,-0.22,0.00,0.24,-46.50,-74.44,252.50,1.00,11.88,1.81,-0.09,0.13,-0.05,141.19,-42.31,25.19,0.62,-0.69,-3.25,6,8
1772725214.505662,4105412,0.17,0.08,0.08,-48.94,-74.81,252.25,0.94,18.69,3.81,0.15,-0.08,-0.12,141.06,-42.25,25.37,4.87,0.37,-0.56,6,7
1772725214.545867,4105452,0.30,0.05,0.02,-51.38,-75.12,252.06,1.06,16.06,4.75,0.38,-0.18,-0.17,140.81,-42.25,25.75,6.19,-1.06,1.62,6,7
1772725214.585164,4105491,0.35,0.02,-0.05,-53.44,-75.31,251.75,-0.50,12.06,6.00,0.00,-0.22,-0.07,140.62,-42.25,26.12,8.56,0.37,5.56,6,5
1772725214.624407,4105531,0.21,0.10,-0.18,-54.88,-75.31,251.44,-2.31,10.25,7.62,0.14,0.02,0.00,140.44,-42.38,26.56,9.69,3.44,6.69,7,5
1772725214.665902,4105572,0.07,0.15,-0.16,-56.69,-75.31,251.00,-1.62,10.69,4.37,0.01,-0.06,0.05,140.37,-42.38,27.00,2.25,3.00,2.06,6,5
1772725214.706884,4105613,0.22,-0.06,-0.09,-58.69,-75.50,250.75,0.81,9.31,-0.13,-0.03,-0.07,-0.05,140.44,-42.31,27.06,-3.81,1.00,-1.81,5,4
1772725214.747301,4105653,0.10,-0.23,0.02,-59.25,-75.62,250.87,1.75,1.56,-2.00,-0.10,-0.03,-0.22,140.56,-42.19,26.81,-12.75,-1.12,-9.13,5,4
1772725214.786284,4105692,-0.14,-0.37,-0.01,-59.06,-75.75,251.00,0.25,-0.13,-1.12,-0.07,0.10,-0.16,140.75,-42.06,26.31,-12.44,-3.75,-10.69,4,4
1772725214.825676,4105732,-0.10,-0.33,-0.19,-59.06,-75.75,250.94,-2.87,0.88,1.06,-0.42,0.31,0.01,140.81,-42.00,25.81,-8.94,-4.50,-8.94,3,5
1772725214.866891,4105773,0.00,-0.21,-0.27,-59.25,-75.81,250.81,-4.50,1.19,4.69,-0.08,-0.11,0.00,140.81,-41.88,25.56,-4.81,-1.25,-5.69,3,6
1772725214.907270,4105813,0.02,0.06,-0.21,-59.94,-75.62,250.25,-6.75,1.25,8.69,-0.29,0.00,0.11,140.87,-41.81,25.37,-1.87,1.94,-0.13,4,6
1772725214.947356,4105854,0.02,0.53,-0.11,-60.56,-75.31,249.62,-7.81,1.19,9.88,-0.30,0.00,0.11,141.00,-41.75,25.44,-0.25,3.81,0.56,4,6
1772725214.986514,4105893,-0.12,0.60,-0.14,-61.19,-75.12,249.12,-4.44,3.94,5.69,-0.21,-0.09,0.14,141.00,-41.69,25.56,1.50,5.37,1.12,4,6
1772725215.025893,4105932,0.18,0.40,-0.13,-62.19,-75.06,248.81,-3.31,8.13,1.44,0.02,-0.24,0.12,141.06,-41.56,25.87,1.56,5.25,0.19,3,6
1772725215.067495,4105974,0.31,0.34,0.11,-63.00,-75.12,248.62,-4.81,4.25,-4.19,0.10,-0.39,0.02,141.12,-41.44,26.06,-3.75,1.81,-1.94,3,6
1772725215.108086,4106014,0.16,0.32,0.21,-62.81,-75.37,248.56,-4.31,1.37,-5.87,0.15,-0.37,-0.09,141.19,-41.25,26.06,-9.63,0.81,-3.62,4,5
1772725215.148277,4106054,0.18,0.21,0.43,-62.06,-75.37,248.56,-2.06,-1.50,-6.50,0.31,-0.11,-0.30,141.50,-41.13,25.75,-9.75,-1.62,0.00,5,5
1772725215.187811,4106094,0.21,0.20,0.39,-60.81,-75.37,248.75,0.31,-2.75,-7.12,0.45,-0.05,-0.29,141.75,-41.13,25.19,-3.87,-2.56,1.44,6,5
1772725215.227018,4106133,-0.07,0.13,0.38,-59.50,-75.44,249.12,4.56,-3.12,-8.69,0.13,0.08,-0.14,141.94,-41.19,24.81,-7.00,-2.81,0.81,5,6
1772725215.268514,4106174,-0.22,-0.22,0.38,-58.81,-75.62,249.56,8.44,-0.88,-10.69,0.06,0.01,-0.11,142.44,-41.31,23.87,-10.50,-3.25,2.94,5,4
1772725215.308901,4106215,-0.21,-0.36,0.15,-58.56,-76.06,250.31,6.50,4.31,-6.44,-0.17,0.07,-0.10,142.75,-41.44,23.19,-2.25,-2.19,3.75,5,5
1772725215.349256,4106255,-0.13,-0.26,-0.01,-59.19,-76.31,250.56,2.50,7.19,-4.37,-0.07,-0.05,0.04,142.87,-41.63,22.81,-1.87,-2.06,4.94,5,5
1772725215.388238,4106294,0.01,-0.24,-0.18,-59.94,-76.69,250.81,0.44,8.38,-5.00,-0.11,-0.05,0.14,143.00,-41.81,22.44,-1.25,-2.56,4.44,4,5
1772725215.427860,4106334,-0.03,-0.14,-0.30,-60.94,-77.00,250.94,-0.44,7.19,-2.44,-0.07,-0.18,0.14,143.06,-42.00,22.06,-2.31,-4.25,2.81,3,4
1772725215.468962,4106375,-0.10,-0.18,-0.20,-61.69,-77.19,250.87,-1.81,5.37,1.19,-0.36,-0.09,0.03,143.12,-42.25,21.50,-5.56,-5.75,1.50,3,4
1772725215.509544,4106415,-0.14,0.10,-0.25,-62.88,-77.25,250.62,-3.19,4.44,3.06,-0.21,0.06,-0.09,143.25,-42.50,20.81,-2.94,-6.00,2.06,3,5
1772725215.549713,4106456,0.22,0.14,-0.30,-64.00,-77.19,250.44,-1.44,4.12,3.50,-0.05,0.16,-0.05,143.31,-42.75,20.31,-0.25,-4.87,3.56,2,5
1772725215.588418,4106495,0.13,0.20,-0.28,-64.56,-77.12,250.31,3.19,-0.13,2.25,-0.09,0.04,0.01,143.37,-43.00,19.94,-0.06,-3.12,5.12,2,5
1772725215.628317,4106534,0.14,-0.04,-0.27,-64.87,-77.06,250.37,6.37,-2.69,1.00,-0.10,-0.08,0.04,143.50,-43.19,19.56,-1.37,-2.25,5.62,2,3
1772725215.669430,4106575,0.29,-0.10,-0.19,-65.00,-77.00,250.56,6.75,-4.19,3.00,-0.04,0.01,-0.02,143.56,-43.38,19.31,0.06,-2.69,3.44,2,3
1772725215.709777,4106616,0.12,-0.04,-0.03,-64.62,-76.75,250.75,7.06,-6.56,2.75,0.00,0.02,-0.08,143.56,-43.56,19.12,4.00,-1.12,3.56,2,5
1772725215.749992,4106656,0.09,-0.12,0.07,-64.06,-76.62,251.06,7.37,-4.19,-1.31,0.14,0.11,-0.03,143.50,-43.63,19.31,6.37,-0.69,3.25,2,5
1772725215.789133,4106695,0.05,-0.22,0.09,-63.63,-76.69,251.37,5.69,-2.87,-2.75,0.00,0.02,0.03,143.31,-43.69,19.62,5.31,-0.25,1.56,2,5
1772725215.829963,4106736,-0.13,-0.30,0.14,-63.13,-76.75,251.69,3.44,-1.69,-4.00,-0.01,0.00,0.07,143.19,-43.69,19.75,-0.06,-0.19,-0.94,2,5
1772725215.870640,4106777,-0.32,-0.34,0.07,-62.81,-76.94,252.00,0.94,2.81,-3.44,-0.19,-0.02,0.01,143.25,-43.69,19.69,-3.94,0.88,-1.62,2,6
1772725215.910954,4106817,-0.03,-0.33,-0.03,-63.25,-77.19,252.06,-2.87,7.12,-1.44,-0.14,0.10,0.07,143.37,-43.63,19.50,-3.37,1.50,-1.62,2,6
1772725215.950843,4106857,0.32,-0.21,-0.23,-64.25,-77.31,251.87,-5.44,7.62,0.56,0.00,0.14,0.00,143.50,-43.56,19.44,-1.56,2.31,-1.00,2,6
1772725215.989892,4106896,0.26,-0.03,-0.33,-65.06,-77.37,251.56,-6.50,4.50,2.00,-0.03,-0.01,-0.10,143.56,-43.50,19.50,0.06,3.12,-0.75,1,6
1772725216.029550,4106935,-0.06,0.20,-0.29,-65.50,-77.37,251.31,-5.06,-0.37,1.06,-0.22,-0.05,-0.14,143.62,-43.38,19.62,-0.44,2.81,-0.56,1,7
1772725216.070984,4106977,0.02,0.11,-0.26,-65.44,-77.31,251.12,-1.25,-4.69,-0.94,-0.13,-0.09,-0.10,143.69,-43.31,19.69,-2.44,0.69,-1.50,2,7
1772725216.111336,4107017,0.28,0.00,-0.26,-64.37,-77.25,251.25,0.94,-9.56,-1.06,0.03,-0.08,-0.13,143.75,-43.25,19.56,-2.44,-0.62,-1.56,1,5
1772725216.151733,4107058,0.52,-0.11,-0.30,-62.44,-77.00,251.44,1.94,-16.00,-0.06,0.04,-0.01,-0.07,143.75,-43.25,19.50,-0.37,-1.12,-1.44,2,5
1772725216.190578,4107097,0.65,-0.26,-0.42,-59.50,-76.56,251.56,0.94,-27.50,3.81,0.01,-0.09,-0.04,143.69,-43.25,19.50,0.37,-2.50,-0.37,2,5
1772725216.230123,4107136,0.50,-0.23,-0.47,-56.75,-76.00,251.56,-2.37,-41.44,9.00,-0.03,-0.13,0.00,143.56,-43.38,19.31,-0.25,-4.62,1.00,2,6
1772725216.271718,4107178,-0.06,-0.04,-0.25,-52.19,-74.75,251.44,-6.81,-45.88,7.56,-0.31,0.08,0.05,143.56,-43.56,19.06,-0.94,-3.12,0.50,2,6
1772725216.311897,4107218,0.14,-0.02,-0.11,-46.63,-73.12,251.19,-10.88,-43.75,3.19,-0.08,0.08,0.15,143.50,-43.63,19.00,0.81,-0.50,-1.94,1,6
1772725216.352123,4107258,-0.52,0.28,0.26,-42.63,-72.00,251.06,-12.38,-38.50,-1.25,-0.25,0.07,0.03,143.44,-43.56,19.06,1.06,3.25,-2.19,1,6
1772725216.391170,4107297,-0.56,0.32,0.47,-39.50,-71.25,251.12,-8.50,-24.50,-5.81,-0.26,0.05,0.08,143.44,-43.44,19.37,3.19,5.19,-2.37,1,6
1772725216.430807,4107337,-0.39,0.26,0.38,-38.00,-70.94,251.25,-2.56,-13.19,-6.00,-0.13,-0.06,0.03,143.31,-43.19,19.94,4.12,6.56,-2.19,1,7
1772725216.472123,4107378,-0.06,0.07,0.36,-36.75,-70.69,251.56,3.31,-7.50,-5.37,0.12,-0.17,-0.04,143.31,-43.00,20.44,1.56,4.81,-2.87,1,7
1772725216.512716,4107419,-0.07,-0.09,0.44,-35.94,-70.56,251.94,5.75,-5.75,-2.50,0.18,-0.21,-0.08,143.19,-42.75,20.94,2.56,3.44,-2.00,1,7
1772725216.553002,4107459,-0.12,-0.16,0.44,-35.56,-70.37,252.19,4.44,-2.44,-0.31,0.18,-0.20,-0.11,143.12,-42.56,21.31,2.00,3.44,-0.69,1,8
1772725216.591667,4107498,0.01,-0.15,0.38,-35.38,-70.31,252.31,0.94,1.75,0.75,0.19,-0.15,-0.07,143.06,-42.44,21.69,1.00,2.87,-0.75,1,8
1772725216.631396,4107538,-0.05,-0.03,0.34,-35.31,-70.37,252.25,-2.25,4.12,0.62,0.09,-0.07,-0.06,143.06,-42.31,21.94,-0.37,2.25,-0.75,1,7
1772725216.672513,4107579,-0.20,0.14,0.36,-35.44,-70.44,252.12,-2.75,8.38,0.88,0.01,-0.02,-0.11,143.12,-42.19,21.94,-0.50,1.06,0.50,2,7
1772725216.713068,4107619,-0.17,0.15,0.27,-36.25,-70.81,251.94,0.56,13.13,0.31,-0.04,-0.03,-0.06,143.19,-42.19,21.94,0.75,0.25,0.81,2,6
1772725216.753443,4107660,-0.49,0.16,0.36,-37.31,-71.19,251.94,3.81,16.50,0.06,-0.13,0.01,-0.03,143.19,-42.25,21.94,-0.06,-1.19,1.25,2,8
1772725216.792448,4107699,-0.59,0.24,0.46,-39.25,-71.94,252.06,10.19,28.00,-0.75,-0.17,0.10,0.00,143.19,-42.31,21.81,1.37,-1.00,1.81,2,8
1772725216.832063,4107738,-0.57,0.26,0.45,-41.56,-72.62,252.19,19.50,41.44,-0.94,-0.11,0.07,-0.02,143.19,-42.38,21.75,-0.88,-1.81,0.44,2,8
1772725216.873628,4107780,0.14,-0.14,0.19,-46.44,-73.87,252.62,27.25,49.81,1.44,-0.11,0.03,-0.11,143.19,-42.44,21.62,0.31,-0.94,-0.06,2,8
1772725216.913871,4107820,0.40,-0.38,-0.08,-54.63,-75.25,253.19,26.69,46.25,4.19,0.25,-0.15,-0.17,143.19,-42.44,21.62,0.88,-1.69,1.50,3,8
1772725216.954114,4107860,0.76,-0.53,-0.42,-61.31,-75.94,253.44,19.75,38.06,5.87,0.22,-0.19,-0.17,143.12,-42.56,21.50,2.06,-3.87,1.31,3,7
1772725216.993152,4107899,0.77,-0.51,-0.42,-66.37,-76.25,253.44,10.19,24.31,5.62,0.15,-0.11,-0.15,143.00,-42.69,21.50,0.37,-4.69,0.62,2,7
1772725217.032681,4107939,0.31,-0.37,-0.40,-68.69,-76.25,253.31,0.62,11.19,5.81,0.08,-0.03,-0.03,142.87,-42.81,21.25,0.00,-6.37,1.19,2,7
1772725217.074394,4107981,0.11,-0.02,-0.31,-70.25,-76.19,252.94,-4.69,4.87,6.56,0.06,-0.30,-0.41,142.81,-43.13,20.87,2.31,-9.63,3.94,2,6
1772725217.114635,4108021,0.51,0.08,-0.29,-70.19,-75.81,252.37,-6.25,-10.75,7.25,-0.39,0.05,-0.16,142.50,-43.56,20.50,7.44,-12.31,5.50,3,7
1772725217.154826,4108061,-0.54,0.32,-0.27,-67.44,-75.19,252.00,-5.25,-24.75,10.69,-0.72,0.23,0.01,142.00,-44.00,20.50,3.87,-8.06,0.94,3,7
1772725217.194361,4108101,-1.01,0.41,-0.50,-65.56,-74.50,251.69,-0.37,-11.81,10.00,-0.83,0.25,0.44,141.69,-44.31,20.31,8.06,-6.12,2.87,3,8
1772725217.233462,4108140,0.14,0.09,-0.66,-66.12,-74.31,251.56,4.87,6.37,3.37,-0.29,0.17,0.30,141.31,-44.56,20.56,8.56,-4.19,-0.44,3,7
1772725217.275141,4108181,1.14,-0.26,-0.61,-67.12,-74.44,251.62,9.25,6.75,-2.19,0.37,-0.07,0.20,140.69,-44.56,21.06,4.75,-5.00,-4.94,3,7
1772725217.315579,4108222,0.61,-0.43,-0.19,-67.56,-74.56,252.12,6.50,-4.87,-1.00,0.47,-0.21,-0.15,140.31,-44.56,21.44,10.00,-0.81,-1.69,3,7
1772725217.355603,4108262,0.41,-0.13,0.11,-66.62,-74.37,252.19,-0.75,-9.50,2.62,0.13,-0.13,-0.22,139.75,-44.44,22.37,16.87,0.37,-1.50,3,8
1772725217.395056,4108301,-0.08,0.07,0.34,-65.06,-74.06,252.12,-3.69,-13.56,1.50,-0.06,-0.03,0.00,139.12,-44.38,23.44,8.25,0.62,-2.75,3,7
1772725217.434314,4108341,-0.42,0.05,0.30,-63.69,-73.87,252.06,-2.94,-8.25,1.87,0.01,-0.12,-0.02,138.75,-44.31,24.06,8.25,0.88,-1.81,3,9
1772725217.475534,4108382,-0.13,0.27,0.20,-63.50,-73.69,251.87,-1.31,-1.81,5.25,-0.17,-0.19,0.00,138.37,-44.25,24.56,5.50,0.44,-1.06,3,9
1772725217.516023,4108422,-0.55,0.27,0.26,-63.75,-73.44,251.62,2.37,1.56,3.94,-0.14,-0.08,0.20,138.12,-44.25,24.87,2.62,-2.00,-1.50,2,8
1772725217.555991,4108462,-0.34,0.00,0.03,-64.87,-73.50,251.62,2.81,12.38,1.19,-0.13,0.02,0.07,137.94,-44.31,24.94,3.19,-1.56,0.19,3,6
1772725217.595300,4108501,0.05,-0.05,-0.32,-66.94,-73.69,251.44,0.56,16.62,2.19,-0.22,-0.04,0.13,137.75,-44.38,25.06,0.13,-0.44,-1.12,3,7
1772725217.634897,4108541,0.00,-0.18,-0.40,-68.44,-73.81,251.25,-0.94,13.25,2.19,-0.28,-0.11,0.05,137.81,-44.38,24.94,-4.25,0.00,-2.00,3,6
1772725217.676320,4108582,0.21,-0.18,-0.49,-70.31,-73.94,251.00,-3.50,11.00,3.06,-0.24,0.04,-0.04,137.87,-44.38,24.75,-5.56,-1.94,-3.06,4,7
1772725217.716925,4108623,0.29,-0.04,-0.37,-71.94,-74.00,250.62,-4.75,3.12,2.12,-0.05,0.06,-0.07,138.00,-44.38,24.44,-5.44,-0.50,-2.06,4,8
1772725217.757052,4108663,0.31,0.01,-0.32,-72.31,-73.94,250.37,-4.69,-0.13,2.87,0.04,-0.13,-0.05,138.06,-44.31,24.31,0.81,-0.56,-1.12,5,8
1772725217.796127,4108702,0.37,0.09,-0.17,-72.12,-73.75,250.12,-3.50,-6.06,4.12,0.11,-0.18,-0.04,138.00,-44.31,24.44,1.69,-0.62,-0.19,5,8
1772725217.835480,4108742,0.06,0.16,0.13,-71.37,-73.56,249.94,-3.87,-8.94,3.19,0.07,-0.14,0.01,137.94,-44.31,24.44,-1.25,-0.94,-0.81,5,8
1772725217.877187,4108783,-0.01,0.18,0.24,-70.31,-73.37,249.81,-3.87,-6.81,1.37,0.04,-0.09,0.00,137.94,-44.25,24.31,-3.44,-2.00,-3.19,5,8
1772725217.917713,4108824,-0.06,0.17,0.29,-69.25,-73.19,249.69,-2.62,-4.12,0.44,-0.08,-0.20,-0.04,137.94,-44.19,24.19,-6.19,-0.94,-3.25,5,10
1772725217.957776,4108864,-0.25,0.07,0.28,-68.75,-73.12,249.56,-2.00,-0.50,0.37,-0.04,-0.17,0.08,138.06,-44.13,23.94,-4.56,1.69,-2.44,5,10
1772725217.996394,4108903,-0.05,0.12,0.08,-69.06,-73.06,249.37,-3.19,5.94,2.44,-0.02,0.00,0.03,138.19,-44.00,23.94,0.31,4.12,1.37,5,7
1772725218.036047,4108942,0.12,0.27,-0.16,-69.69,-73.12,249.19,-2.56,7.56,0.13,-0.16,0.06,0.01,138.37,-43.94,24.00,-1.87,4.75,2.62,5,7
1772725218.077594,4108984,-0.05,0.15,-0.17,-70.50,-73.25,249.12,-1.06,7.31,-5.44,-0.02,0.00,-0.01,138.69,-43.94,23.81,-7.31,2.19,-0.37,4,8
1772725218.118468,4109024,0.18,-0.15,-0.23,-71.31,-73.69,249.37,-0.56,6.12,-8.81,-0.02,-0.14,-0.02,139.06,-43.88,23.37,-10.69,-0.13,-1.81,4,8
1772725218.158535,4109065,0.07,-0.24,-0.13,-71.31,-74.06,249.62,-2.75,1.87,-8.50,-0.10,-0.10,0.01,139.44,-43.81,22.69,-14.19,-2.12,-1.87,4,8
1772725218.197739,4109104,-0.09,-0.17,-0.15,-71.06,-74.44,249.75,-6.25,2.87,-6.87,-0.15,-0.03,-0.03,139.87,-43.88,21.87,-13.13,-1.44,-0.94,4,7
1772725218.237104,4109143,0.04,-0.03,-0.23,-71.00,-74.69,249.75,-8.31,2.62,-7.31,-0.18,0.04,-0.04,140.31,-43.88,21.00,-14.13,-1.94,-1.62,5,6
1772725218.278383,4109184,-0.09,-0.04,-0.26,-70.75,-75.00,249.75,-7.62,1.81,-8.56,-0.38,0.11,0.03,140.75,-43.94,20.12,-14.50,-0.88,-3.94,5,6
1772725218.319003,4109225,-0.07,-0.04,-0.27,-70.81,-75.44,249.81,-5.44,5.62,-6.44,-0.27,0.19,0.05,141.12,-43.94,19.37,-8.44,2.37,-3.56,5,5
1772725218.359044,4109265,0.06,-0.06,-0.31,-71.62,-75.75,249.81,-2.12,6.87,-4.37,-0.30,0.00,0.14,141.37,-43.81,19.06,-8.25,3.94,-3.44,4,5
1772725218.398423,4109304,0.12,-0.06,-0.37,-72.81,-75.94,249.81,-1.00,7.37,-0.94,-0.07,-0.01,-0.02,141.62,-43.63,18.94,-2.62,6.25,-2.69,4,6
1772725218.437434,4109344,0.25,-0.03,-0.25,-73.69,-76.00,249.75,-1.25,4.87,0.44,0.02,-0.18,0.02,141.75,-43.38,19.25,0.44,8.00,-1.31,4,6
1772725218.479130,4109385,0.47,0.04,-0.19,-74.31,-76.00,249.62,-2.69,-0.62,1.56,0.41,-0.49,-0.04,141.81,-43.13,19.75,-2.19,6.87,-2.69,4,6
1772725218.519521,4109426,0.82,-0.05,-0.16,-73.19,-75.87,249.44,-5.62,-11.50,0.88,0.75,-0.28,-0.26,142.06,-42.81,19.81,-6.31,6.31,-0.37,4,7
1772725218.559699,4109466,0.73,0.15,-0.07,-70.06,-75.62,249.31,-9.44,-24.75,-0.25,0.57,-0.17,-0.43,142.37,-42.69,19.75,-0.56,0.62,0.50,3,7
1772725218.599315,4109505,0.54,0.05,0.05,-65.12,-75.25,249.37,-8.00,-36.06,-5.06,0.10,0.00,-0.15,142.37,-42.50,20.00,-1.50,-3.50,-2.50,3,7
1772725218.638402,4109545,0.13,-0.09,0.09,-59.25,-74.75,249.69,-7.87,-41.06,-7.25,0.09,0.06,-0.07,142.37,-42.50,19.87,-2.50,-1.37,-2.62,3,7
1772725218.679904,4109586,-0.16,0.01,0.33,-55.00,-74.31,249.94,-8.44,-41.06,-7.25,-0.22,-0.08,0.04,142.37,-42.50,19.75,1.44,1.94,1.37,3,7
1772725218.720112,4109626,-0.74,0.16,0.60,-48.81,-73.44,250.31,-8.00,-33.75,-7.00,-0.35,0.00,0.00,142.44,-42.44,19.94,4.25,4.00,3.94,3,7
1772725218.760257,4109666,-0.76,0.21,0.63,-45.56,-72.94,250.62,-3.56,-20.75,-7.94,-0.15,-0.13,0.01,142.44,-42.44,20.19,3.00,2.50,3.19,3,7
1772725218.799237,4109705,-0.46,0.00,0.58,-43.50,-72.75,251.00,1.44,-11.13,-6.50,-0.23,-0.07,0.02,142.44,-42.50,20.25,1.44,0.62,2.62,3,7
1772725218.838977,4109745,-0.28,-0.04,0.39,-42.56,-72.62,251.25,3.25,-3.81,-2.75,-0.09,-0.09,-0.01,142.50,-42.56,20.19,0.56,-0.94,2.12,3,8
1772725218.880151,4109786,-0.11,-0.09,0.25,-42.13,-72.56,251.44,3.69,0.62,-1.56,0.06,-0.12,0.03,142.56,-42.56,20.06,-1.62,-0.31,0.62,3,7
1772725218.920707,4109827,0.03,-0.06,0.12,-42.19,-72.69,251.62,2.56,3.69,-1.25,0.01,-0.04,0.00,142.62,-42.63,19.94,-2.12,-0.62,0.00,3,7
1772725218.961060,4109867,0.12,-0.07,0.01,-42.44,-72.87,251.75,2.25,4.00,-1.37,0.07,-0.05,-0.06,142.69,-42.63,19.81,-1.37,0.06,0.69,3,7
1772725219.001160,4109907,-0.02,-0.04,0.06,-42.81,-73.00,251.81,2.00,4.06,-0.13,0.01,-0.08,-0.04,142.75,-42.63,19.75,1.00,-0.94,0.75,3,7
1772725219.040299,4109946,-0.11,-0.01,0.15,-43.25,-73.12,251.87,2.19,5.06,0.06,-0.03,-0.05,-0.03,142.69,-42.69,19.75,1.12,-1.62,0.44,2,8
1772725219.081339,4109987,-0.27,-0.02,0.25,-43.69,-73.25,251.87,1.87,8.06,0.13,-0.06,-0.02,0.01,142.62,-42.75,19.69,-0.62,-1.94,0.62,2,7
1772725219.121369,4110028,-0.41,0.06,0.30,-44.94,-73.62,251.87,2.12,14.75,-0.50,-0.24,0.03,0.05,142.62,-42.88,19.50,-0.13,-1.62,1.06,2,7
1772725219.161733,4110068,-0.57,0.15,0.40,-46.81,-74.19,251.87,4.31,24.56,-1.44,-0.09,0.04,0.03,142.62,-42.94,19.31,-2.37,-1.50,0.69,2,8
1772725219.200658,4110107,-0.46,0.07,0.30,-50.31,-74.94,251.87,7.25,36.75,0.75,-0.01,-0.12,0.07,142.75,-43.00,19.06,-2.87,-0.88,2.12,2,11
1772725219.240303,4110146,0.06,-0.15,-0.09,-55.88,-75.87,251.75,7.50,43.38,3.69,-0.09,-0.15,-0.12,142.81,-43.06,18.94,2.19,-0.06,2.00,2,9
1772725219.281720,4110188,0.58,-0.08,-0.41,-60.44,-76.37,251.56,4.69,37.00,3.69,0.12,-0.15,-0.12,142.62,-43.13,19.19,2.81,-1.56,0.50,2,9
1772725219.322150,4110228,0.74,-0.05,-0.39,-66.37,-76.94,251.37,4.81,23.00,0.31,0.25,-0.15,-0.01,142.56,-43.13,19.19,-2.69,-2.06,0.00,2,8
1772725219.362423,4110269,0.43,-0.07,-0.26,-69.19,-77.19,251.44,4.00,13.38,0.50,0.07,-0.15,-0.09,142.62,-43.19,19.00,-2.19,-1.44,0.31,1,9
1772725219.401639,4110308,0.30,-0.05,-0.28,-71.00,-77.25,251.37,1.56,8.25,2.75,-0.06,-0.16,0.00,142.69,-43.19,18.87,-1.94,-0.50,0.94,1,9
1772725219.442559,4110348,0.18,0.11,-0.21,-71.81,-77.25,251.25,-1.50,-1.12,3.56,-0.08,-0.07,-0.04,142.75,-43.25,18.69,-0.06,-1.25,1.12,1,8
1772725219.483024,4110389,-0.01,0.24,-0.20,-71.06,-77.06,251.06,-2.37,-4.62,0.25,-0.08,0.02,0.03,142.69,-43.31,18.62,0.81,-2.75,1.00,2,8
1772725219.523048,4110429,-0.12,0.20,-0.14,-70.37,-77.12,251.19,1.06,-2.37,-4.12,-0.10,0.00,0.13,142.62,-43.44,18.50,1.00,-3.06,0.62,1,11
1772725219.563294,4110469,-0.15,0.07,-0.12,-70.31,-77.19,251.44,5.06,-0.13,-2.94,-0.19,-0.06,0.16,142.56,-43.56,18.44,-1.00,-2.00,0.00,2,11
1772725219.603458,4110510,0.22,-0.14,-0.19,-70.69,-77.31,251.69,4.87,2.31,-1.69,-0.09,-0.10,0.05,142.50,-43.63,18.25,-0.56,-0.50,0.50,2,8
1772725219.642203,4110549,0.03,0.01,-0.10,-71.19,-77.31,251.81,2.75,2.87,0.19,-0.07,-0.11,-0.02,142.50,-43.63,18.31,1.31,0.50,1.06,2,8
1772725219.683269,4110590,-0.02,0.13,-0.07,-71.69,-77.37,251.81,2.31,2.81,0.75,-0.03,-0.11,-0.07,142.50,-43.63,18.37,1.94,1.00,0.81,2,8
1772725219.723458,4110630,0.24,0.02,-0.07,-72.50,-77.37,251.94,3.56,2.56,-0.69,0.03,-0.07,0.00,142.44,-43.63,18.50,0.37,0.62,0.75,2,6
1772725219.763983,4110670,-0.05,0.08,-0.01,-72.87,-77.44,252.06,4.50,1.75,-1.75,-0.07,-0.05,0.00,142.50,-43.63,18.50,-0.75,0.56,-0.25,2,6
1772725219.803066,4110709,0.07,-0.05,-0.05,-73.31,-77.50,252.31,4.62,2.19,-1.69,-0.01,-0.04,0.00,142.50,-43.56,18.50,-0.69,1.12,-0.56,2,6
1772725219.843624,4110750,-0.20,0.06,-0.05,-73.62,-77.62,252.50,3.87,1.00,-1.62,-0.12,-0.01,-0.07,142.56,-43.56,18.56,-0.62,0.94,0.06,2,6
1772725219.884529,4110790,0.04,0.00,-0.09,-73.81,-77.75,252.75,3.62,0.37,-4.06,-0.01,-0.08,-0.03,142.56,-43.50,18.50,-1.50,-0.31,-0.75,2,6
1772725219.924453,4110831,0.27,-0.10,-0.09,-73.81,-77.87,253.06,3.62,-0.37,-3.44,0.00,-0.04,-0.01,142.62,-43.50,18.44,-1.06,-0.69,0.00,2,3
1772725219.964684,4110871,0.03,0.09,-0.05,-73.50,-78.00,253.31,4.00,-2.31,-2.50,0.04,-0.08,0.02,142.62,-43.56,18.37,-1.37,-0.88,-0.50,2,1
1772725220.004003,4110910,-0.06,-0.02,0.00,-73.25,-78.06,253.62,6.87,-1.12,-2.87,-0.04,-0.07,0.01,142.62,-43.56,18.25,-2.62,-0.56,-1.00,2,1
1772725220.044416,4110950,-0.06,-0.11,-0.01,-73.44,-78.12,253.94,6.81,0.31,-0.19,-0.02,-0.07,-0.02,142.69,-43.56,18.12,-0.81,-0.13,-0.06,1,1
1772725220.085001,4110991,-0.04,0.01,0.01,-73.62,-78.12,254.12,5.31,0.88,-0.25,0.02,-0.14,-0.02,142.69,-43.56,18.12,0.00,-0.25,-0.19,1,4
1772725220.125160,4111031,0.03,-0.10,0.02,-74.19,-78.12,254.31,4.50,1.56,-0.25,-0.05,-0.08,-0.03,142.69,-43.56,18.19,1.31,-0.50,-0.19,1,5
1772725220.165015,4111071,-0.66,0.13,0.19,-74.56,-78.12,254.37,1.37,1.25,3.69,0.02,-0.09,0.00,142.62,-43.56,18.31,1.50,-0.44,0.44,1,8
1772725220.205346,4111112,-0.23,-0.06,0.05,-76.50,-78.12,254.31,2.44,17.12,0.19,-0.06,-0.13,0.00,142.56,-43.56,18.37,0.88,0.25,0.50,1,8
1772725220.245638,4111152,0.54,-0.23,-0.05,-79.56,-78.25,254.19,-2.75,9.81,1.37,-0.14,-0.07,0.08,142.56,-43.56,18.44,0.06,0.56,0.31,1,8
1772725220.285979,4111192,0.01,0.00,-0.04,-80.62,-78.19,253.94,-4.44,5.06,1.50,-0.04,-0.05,0.00,142.56,-43.56,18.44,-0.44,0.56,0.44,1,9
1772725220.325773,4111232,0.09,0.08,-0.07,-81.37,-78.19,253.69,-4.56,4.69,0.31,0.00,-0.09,-0.01,142.56,-43.56,18.44,0.50,0.19,0.56,1,11
1772725220.365992,4111272,0.14,0.05,-0.11,-81.94,-78.19,253.50,-3.56,2.37,-0.19,-0.04,-0.07,-0.01,142.50,-43.56,18.44,0.62,0.13,0.19,1,11
1772725220.406680,4111313,0.00,0.08,-0.06,-82.00,-78.19,253.37,-3.25,-0.13,-0.06,-0.06,-0.08,0.03,142.50,-43.56,18.50,-0.56,-0.13,-0.13,1,12
1772725220.445718,4111352,0.01,0.05,-0.03,-82.00,-78.25,253.25,-1.94,0.94,-1.06,-0.11,-0.07,-0.01,142.50,-43.56,18.44,-1.37,0.19,-0.56,1,11
1772725220.486348,4111392,0.12,-0.09,-0.06,-82.12,-78.25,253.25,-1.75,1.56,-0.88,-0.10,-0.04,0.00,142.56,-43.50,18.44,-0.94,1.06,-1.25,1,9
1772725220.526891,4111433,0.05,-0.02,-0.04,-82.25,-78.31,253.19,-2.75,1.00,-0.62,-0.08,-0.05,-0.05,142.56,-43.44,18.44,-1.69,1.06,-0.56,1,9
1772725220.566911,4111473,0.00,-0.01,0.01,-82.31,-78.37,253.12,-2.56,1.12,-1.50,0.01,-0.07,-0.03,142.62,-43.44,18.44,-0.56,0.75,-0.88,1,6
1772725220.606550,4111513,0.07,0.00,0.00,-82.44,-78.37,253.00,-2.44,0.94,-0.06,0.00,-0.09,-0.06,142.62,-43.38,18.44,0.75,0.50,0.00,1,6
1772725220.646806,4111553,0.08,0.03,0.00,-82.31,-78.37,252.94,-1.44,-0.62,0.37,0.00,-0.07,-0.04,142.62,-43.38,18.50,0.62,0.37,-0.50,1,7
1772725220.687394,4111594,0.04,0.00,0.03,-82.12,-78.37,252.94,-0.25,-1.31,0.50,0.00,-0.10,0.04,142.56,-43.38,18.56,-0.94,0.56,-1.06,1,6
1772725220.727586,4111634,-0.09,-0.08,0.05,-81.81,-78.37,252.94,-0.37,-1.75,0.00,-0.05,-0.14,-0.02,142.69,-43.31,18.50,-4.44,2.31,-1.31,1,5
1772725220.768127,4111674,-0.14,-0.10,-0.02,-81.62,-78.37,252.87,-3.81,0.13,-0.56,-0.07,-0.09,-0.06,142.81,-43.19,18.44,-3.31,2.62,-1.25,1,5
1772725220.807088,4111713,0.10,-0.10,-0.15,-81.31,-78.37,252.69,-7.00,-1.56,-0.69,-0.21,-0.09,0.01,142.94,-43.13,18.37,-1.94,1.25,-2.44,1,5
1772725220.846001,4111752,0.14,-0.11,-0.21,-80.44,-78.37,252.44,-6.62,-3.87,0.62,0.00,0.00,-0.05,143.00,-43.00,18.31,-2.37,0.69,-2.75,1,6
1772725220.887419,4111794,0.26,-0.14,-0.24,-79.75,-78.31,252.25,-5.62,-5.50,3.37,0.06,-0.03,0.00,142.94,-42.94,18.44,-0.37,2.00,-1.62,1,6
1772725220.928081,4111834,0.42,-0.10,-0.30,-78.31,-78.06,251.87,-6.37,-10.38,6.06,0.05,-0.13,0.00,143.00,-42.81,18.50,-1.44,2.50,-1.50,1,5
1772725220.968343,4111874,0.42,-0.01,-0.23,-75.94,-77.69,251.44,-8.63,-17.62,6.56,-0.04,-0.09,-0.04,143.06,-42.75,18.56,-1.87,0.94,-1.81,1,5
1772725221.007634,4111913,0.23,0.12,-0.10,-72.19,-77.25,251.06,-10.75,-25.25,4.12,-0.11,-0.07,0.02,143.12,-42.69,18.50,-3.50,-0.56,-2.81,1,5
1772725221.046654,4111953,-0.36,0.34,0.28,-68.25,-76.87,250.75,-8.75,-18.75,0.19,0.00,-0.02,-0.03,143.12,-42.63,18.37,-2.69,-0.88,-2.25,1,6
1772725221.088293,4111994,-0.30,0.35,0.42,-66.37,-76.75,250.69,-3.75,-10.06,-1.50,0.02,-0.07,-0.03,143.12,-42.63,18.37,0.50,0.94,0.19,1,5
1772725221.128448,4112035,-0.07,0.17,0.31,-64.75,-76.62,250.75,1.19,-4.37,-0.75,0.09,-0.17,-0.07,143.12,-42.56,18.50,3.44,1.44,1.44,1,5
1772725221.168591,4112075,0.10,-0.03,0.08,-64.19,-76.50,250.81,2.12,-3.56,0.25,0.07,-0.20,0.00,143.06,-42.56,18.75,3.25,0.75,1.19,1,5
1772725221.208090,4112114,0.13,-0.04,-0.10,-63.50,-76.44,250.87,-0.81,-5.75,0.31,0.05,-0.18,-0.03,142.94,-42.56,18.94,1.31,-0.06,1.31,1,4
1772725221.248581,4112155,0.12,-0.01,-0.08,-62.13,-76.31,250.87,-3.44,-11.25,-1.25,0.00,-0.17,-0.04,142.94,-42.56,18.94,0.44,-0.88,0.69,2,4
1772725221.289174,4112195,0.06,0.08,0.05,-60.00,-76.06,250.87,-3.87,-14.31,-1.44,-0.06,-0.05,0.00,142.87,-42.63,18.94,1.56,-1.25,1.19,1,3
1772725221.329601,4112236,-0.26,0.14,0.18,-57.88,-75.87,250.94,-1.87,-12.31,-2.19,-0.03,-0.03,-0.02,142.87,-42.69,18.94,1.56,-1.19,1.87,1,4
1772725221.369809,4112276,-0.18,0.05,0.15,-56.50,-75.75,251.12,0.00,-6.75,-3.06,-0.07,-0.09,0.00,142.81,-42.81,18.94,2.12,-1.00,2.31,1,4
1772725221.408690,4112315,-0.18,-0.01,0.09,-55.69,-75.75,251.25,0.50,-2.94,-2.50,-0.09,-0.07,0.04,142.75,-42.88,18.94,1.75,-1.25,1.94,1,4
1772725221.447320,4112354,-0.13,0.00,0.00,-55.31,-75.81,251.37,0.31,0.06,-2.56,-0.12,0.06,0.00,142.75,-42.94,18.87,1.44,-0.75,2.25,1,2
1772725221.489242,4112395,-0.04,-0.05,-0.04,-55.25,-75.94,251.50,1.69,2.62,-3.94,-0.10,-0.06,0.00,142.75,-43.00,18.87,2.00,-0.25,2.50,2,2
1772725221.529894,4112436,-0.01,-0.03,-0.07,-55.56,-76.12,251.69,2.87,3.94,-1.81,-0.05,-0.10,0.03,142.75,-43.06,18.87,0.62,0.69,2.94,2,3
1772725221.570290,4112476,0.10,-0.02,-0.06,-56.19,-76.25,251.81,3.87,4.31,-1.12,0.03,-0.06,0.00,142.81,-43.13,18.81,-1.12,-0.06,1.44,2,2
1772725221.609366,4112515,0.02,-0.05,0.00,-56.69,-76.44,252.00,3.81,4.06,-2.50,0.02,-0.09,-0.01,142.87,-43.13,18.69,-1.87,-0.62,0.13,2,2
1772725221.648601,4112555,-0.01,-0.19,0.01,-57.00,-76.62,252.19,2.69,3.50,-2.94,-0.01,-0.11,0.00,142.94,-43.13,18.56,-3.19,-0.69,-1.12,2,2
1772725221.690443,4112596,-0.24,-0.16,0.06,-57.19,-76.75,252.31,-0.56,4.69,-2.12,-0.05,-0.06,-0.03,143.00,-43.19,18.25,-3.12,-1.50,-1.50,2,2
1772725221.730686,4112637,-0.18,-0.05,0.13,-58.00,-77.00,252.31,-1.37,8.75,-1.19,0.01,-0.06,-0.11,143.00,-43.19,18.12,-0.62,-2.94,-0.88,2,3
1772725221.770927,4112677,-0.27,-0.02,0.20,-59.38,-77.25,252.25,-0.81,11.75,0.00,0.00,-0.02,-0.07,142.94,-43.25,18.00,0.94,-3.87,-0.69,2,3
1772725221.810002,4112716,-0.21,-0.10,0.21,-61.63,-77.56,252.12,0.44,18.75,0.19,-0.02,-0.04,0.00,142.81,-43.38,17.94,0.62,-2.75,-0.81,3,4
1772725221.850167,4112756,-0.13,-0.20,0.04,-65.00,-77.87,251.94,-0.50,22.62,2.62,0.01,-0.14,0.02,142.75,-43.44,17.87,-0.13,-0.81,0.94,3,4
1772725221.891473,4112797,0.12,-0.16,-0.09,-69.50,-78.06,251.50,-3.19,25.94,6.25,-0.03,-0.17,-0.04,142.75,-43.44,17.81,-2.25,-0.06,0.94,3,4
1772725221.931697,4112838,0.44,-0.10,-0.12,-73.81,-78.12,250.87,-6.62,21.44,6.44,0.08,-0.19,-0.09,142.87,-43.44,17.62,-2.81,-1.25,0.25,2,4
1772725221.971790,4112878,0.33,0.07,-0.11,-76.69,-78.06,250.25,-9.19,13.50,4.56,0.13,-0.10,-0.04,142.87,-43.50,17.50,-0.56,-1.44,0.25,2,5
1772725222.010909,4112917,0.19,0.27,-0.06,-78.31,-78.00,249.69,-8.50,8.19,3.37,0.01,-0.04,-0.01,142.87,-43.56,17.37,-1.25,-3.50,-0.69,2,5
1772725222.050108,4112956,0.02,0.23,-0.09,-79.44,-77.87,249.25,-3.81,6.00,1.87,-0.07,-0.16,0.06,142.75,-43.63,17.25,-0.13,-3.31,-1.50,3,6
1772725222.091245,4112998,-0.06,0.16,-0.11,-80.37,-77.81,249.12,0.56,6.31,3.12,-0.18,-0.05,0.07,142.62,-43.69,17.25,1.56,-1.37,0.13,2,6
1772725222.132081,4113038,0.03,0.19,-0.10,-82.06,-77.62,248.87,2.31,6.56,4.06,-0.10,-0.09,0.03,142.56,-43.75,17.25,-0.13,-1.56,-0.25,2,6
1772725222.172336,4113079,0.09,0.11,-0.10,-83.44,-77.56,248.81,3.00,5.94,1.25,-0.09,-0.11,0.08,142.56,-43.81,17.19,-0.69,-1.25,0.00,2,6
1772725222.212439,4113119,0.19,0.11,-0.18,-84.62,-77.50,248.81,3.19,5.50,0.94,-0.09,-0.09,0.03,142.56,-43.81,17.06,-1.31,-0.06,0.94,2,6
1772725222.251472,4113158,0.00,0.18,-0.14,-85.69,-77.50,248.87,2.94,3.62,0.75,-0.10,-0.06,0.02,142.62,-43.81,17.00,0.25,1.37,2.00,2,7
1772725222.292464,4113199,0.07,0.18,-0.14,-86.56,-77.50,248.94,3.87,3.56,-1.25,-0.07,-0.08,0.03,142.75,-43.81,17.00,0.56,1.62,1.81,1,7
1772725222.333001,4113239,0.16,0.04,-0.18,-87.19,-77.56,249.19,5.44,0.88,-3.31,-0.03,-0.09,-0.04,142.81,-43.81,17.00,-0.13,1.50,1.37,1,6
1772725222.373109,4113279,0.10,-0.04,-0.10,-87.31,-77.69,249.56,5.69,-2.00,-3.62,0.00,-0.08,-0.01,142.87,-43.81,17.00,0.44,1.44,1.44,2,7
1772725222.413343,4113320,0.07,-0.07,-0.06,-87.00,-77.81,249.94,5.31,-3.31,-3.81,0.05,-0.11,-0.02,142.94,-43.81,17.00,0.37,1.06,0.81,2,7
1772725222.453450,4113360,0.09,-0.13,-0.01,-86.44,-77.94,250.31,4.31,-4.44,-3.25,0.00,-0.10,0.00,143.00,-43.75,17.06,0.25,1.06,0.56,2,5
1772725222.493847,4113400,0.00,-0.07,0.03,-85.56,-78.06,250.56,2.81,-5.37,-2.56,-0.04,-0.10,0.03,143.00,-43.75,17.12,-0.06,1.00,0.50,2,6
1772725222.533720,4113440,0.00,-0.07,0.05,-84.69,-78.12,250.81,2.81,-4.62,-2.44,0.00,-0.08,0.00,143.00,-43.69,17.12,-0.06,1.00,0.13,2,6
1772725222.574122,4113480,-0.02,-0.07,0.02,-83.81,-78.19,251.00,2.31,-4.62,-1.56,-0.04,-0.06,-0.07,143.06,-43.69,17.19,-0.50,1.50,0.62,2,4
1772725222.614248,4113520,-0.05,-0.09,0.07,-82.94,-78.25,251.25,2.44,-4.81,-2.37,-0.03,-0.10,-0.04,143.06,-43.63,17.25,-0.13,0.75,0.56,1,4
1772725222.654473,4113560,-0.01,-0.07,0.05,-82.00,-78.31,251.44,2.12,-4.75,-1.94,-0.01,-0.05,0.00,143.06,-43.63,17.25,-0.75,0.37,0.25,2,3
1772725222.694912,4113601,-0.02,-0.08,0.07,-81.19,-78.37,251.62,2.12,-4.12,-1.25,-0.06,-0.05,0.00,143.12,-43.63,17.25,-0.31,0.44,0.37,2,3
1772725222.734740,4113641,-0.05,-0.09,0.05,-80.62,-78.37,251.75,1.44,-2.62,-0.75,-0.05,-0.07,0.00,143.12,-43.63,17.25,0.37,0.25,0.25,2,5
1772725222.775003,4113681,-0.06,-0.08,0.05,-80.19,-78.37,251.81,0.44,-1.81,0.06,-0.08,-0.03,-0.02,143.12,-43.63,17.25,-0.06,0.31,0.31,2,7
1772725222.814796,4113721,0.00,-0.03,0.03,-79.81,-78.37,251.81,-0.13,-1.87,-0.19,0.02,-0.08,-0.01,143.12,-43.63,17.25,-0.31,0.00,0.00,2,8
1772725222.855222,4113761,-0.02,-0.02,0.03,-79.50,-78.37,251.81,-0.19,-1.69,0.13,-0.01,-0.06,0.00,143.12,-43.63,17.25,0.00,-0.06,0.31,2,8
1772725222.895264,4113802,-0.03,0.01,0.06,-79.25,-78.37,251.87,0.31,-1.19,0.19,-0.01,-0.06,-0.03,143.12,-43.63,17.25,-0.25,0.06,0.37,1,7
1772725222.935372,4113842,0.01,-0.03,0.03,-79.19,-78.37,251.87,0.50,-0.25,-0.19,-0.01,-0.08,-0.02,143.06,-43.63,17.25,-0.37,0.19,0.19,2,8
1772725222.975561,4113882,0.00,-0.04,0.01,-79.12,-78.37,251.87,-0.06,-0.50,-0.19,-0.02,-0.07,-0.01,143.06,-43.63,17.25,0.06,0.00,0.37,2,9
1772725223.015439,4113922,0.00,0.00,0.01,-79.12,-78.37,251.87,-0.25,-0.37,0.25,0.00,-0.10,0.02,143.06,-43.63,17.25,0.44,-0.06,0.00,2,9
1772725223.055817,4113962,0.03,-0.04,-0.01,-79.12,-78.37,251.87,-0.19,-0.13,0.31,-0.02,-0.09,0.00,143.06,-43.63,17.25,0.31,0.00,-0.13,2,9
1772725223.096010,4114002,0.04,-0.03,0.00,-79.00,-78.37,251.87,-0.62,-1.06,0.62,-0.02,-0.06,-0.02,143.06,-43.63,17.25,0.81,-0.13,-0.19,2,9
1772725223.135929,4114042,0.07,-0.05,-0.04,-78.69,-78.31,251.81,-1.25,-1.56,0.69,-0.04,-0.06,0.00,143.06,-43.63,17.31,0.75,0.56,-0.25,2,7
1772725223.176195,4114082,0.08,-0.03,-0.12,-78.19,-78.25,251.75,-1.69,-3.25,1.06,0.00,-0.12,-0.01,143.06,-43.63,17.37,0.19,0.25,-0.62,2,4
1772725223.216272,4114122,0.25,-0.12,-0.26,-77.31,-78.19,251.62,-2.50,-6.12,1.81,0.00,-0.08,-0.06,143.06,-43.63,17.37,0.31,0.81,0.06,2,5
1772725223.256739,4114163,0.43,-0.11,-0.45,-75.69,-78.00,251.50,-4.75,-14.75,2.19,0.10,-0.14,-0.11,143.06,-43.56,17.37,-1.25,0.25,-0.37,2,5
1772725223.296904,4114203,0.61,-0.29,-0.39,-72.31,-77.81,251.37,-9.19,-27.37,2.56,-0.08,-0.07,0.02,143.06,-43.63,17.31,0.44,-1.62,0.50,2,5
1772725223.336732,4114243,-0.10,0.11,0.08,-66.56,-77.19,251.06,-12.88,-37.31,3.75,-0.09,-0.02,0.08,143.00,-43.63,17.31,1.75,-0.88,0.75,2,4
1772725223.376685,4114283,-0.60,0.34,0.41,-61.13,-76.56,250.87,-10.50,-29.06,-0.31,-0.16,0.03,0.10,142.94,-43.69,17.37,0.94,0.00,-0.75,2,3
1772725223.417195,4114323,-0.42,0.29,0.43,-58.00,-76.25,250.81,-5.06,-14.38,-3.00,-0.17,-0.13,0.06,142.94,-43.63,17.44,-0.25,1.50,-1.31,2,4
1772725223.455938,4114362,-0.23,0.26,0.32,-56.50,-76.12,250.87,0.06,-5.81,-1.44,-0.06,-0.09,0.00,142.94,-43.56,17.56,-0.81,1.75,-0.62,1,4
1772725223.496902,4114403,-0.07,0.11,0.22,-55.94,-76.00,251.00,4.19,-2.31,-1.94,0.11,-0.16,-0.02,143.00,-43.50,17.56,0.00,0.50,-0.06,2,7
1772725223.537008,4114443,0.03,0.00,0.16,-55.69,-76.00,251.25,4.62,-1.00,-1.81,0.06,-0.14,-0.07,142.94,-43.50,17.62,0.94,0.44,0.94,1,7
1772725223.577394,4114484,-0.03,0.01,0.18,-55.56,-76.06,251.44,3.56,-0.19,-1.37,0.03,-0.11,-0.01,142.94,-43.56,17.62,1.12,0.69,1.87,2,9
1772725223.617574,4114524,-0.01,0.00,0.10,-55.56,-76.12,251.62,2.75,1.37,-2.12,0.09,-0.17,-0.01,143.00,-43.56,17.62,-1.19,0.13,0.62,1,8
1772725223.656637,4114563,0.02,-0.09,0.05,-55.63,-76.25,251.81,2.62,1.81,-2.94,0.07,-0.16,-0.06,143.06,-43.56,17.50,-2.31,-0.37,-0.13,2,8
1772725223.697503,4114604,0.02,-0.13,0.03,-55.63,-76.37,251.94,1.37,1.31,-1.87,0.03,-0.10,-0.03,143.12,-43.56,17.31,-2.12,-1.06,0.37,2,8
1772725223.738019,4114644,-0.25,-0.02,0.15,-55.69,-76.44,252.00,0.00,2.81,-0.75,-0.10,-0.03,0.01,143.19,-43.63,17.19,-0.37,-0.88,1.12,2,9
1772725223.778134,4114684,-0.28,0.09,0.11,-56.50,-76.56,252.00,2.25,8.44,-0.88,-0.10,0.04,0.00,143.19,-43.69,17.12,-0.69,-1.06,0.75,2,9
1772725223.818246,4114725,-0.36,0.03,0.11,-58.38,-76.87,252.12,6.44,15.88,-0.75,-0.19,-0.09,0.01,143.19,-43.75,17.06,0.62,-0.50,0.50,2,9
1772725223.857005,4114764,-0.24,-0.03,0.00,-61.88,-77.25,252.25,9.25,24.56,2.31,-0.11,-0.15,0.05,143.19,-43.75,17.12,1.81,1.19,1.50,2,9
1772725223.897930,4114804,0.26,-0.09,-0.18,-66.69,-77.56,252.19,8.06,26.00,5.50,0.05,-0.11,0.00,143.25,-43.69,17.12,-1.37,0.94,0.50,2,6
1772725223.938421,4114845,0.37,-0.03,-0.18,-71.12,-77.69,252.06,5.87,22.19,3.25,0.09,-0.12,-0.06,143.31,-43.69,17.12,-0.94,1.06,0.00,2,6
1772725223.979110,4114885,0.42,-0.07,-0.16,-74.44,-77.87,252.00,3.94,14.38,1.25,0.21,-0.13,-0.17,143.37,-43.63,17.06,-1.81,-1.75,-1.50,2,4
1772725224.018118,4114924,0.26,-0.03,-0.04,-76.12,-77.94,252.06,3.12,5.87,-0.44,0.14,-0.11,-0.09,143.31,-43.63,17.00,-2.19,-3.75,-2.62,2,5
1772725224.056595,4114963,0.00,-0.09,0.01,-76.81,-77.94,252.19,3.25,2.00,0.00,-0.09,-0.05,0.00,143.25,-43.69,16.87,0.13,-2.56,-1.06,1,5
1772725224.098214,4115005,-0.06,0.00,0.00,-77.12,-77.94,252.19,2.19,1.50,3.25,-0.13,-0.09,0.08,143.19,-43.75,16.87,1.12,-1.12,1.50,1,5
1772725224.138779,4115045,-0.08,0.15,0.00,-78.00,-77.75,252.06,2.19,3.81,3.87,-0.17,-0.02,0.06,143.19,-43.81,16.81,0.19,-0.13,1.87,1,4
1772725224.179188,4115086,0.00,0.11,-0.05,-79.00,-77.69,252.00,3.06,5.12,1.19,-0.09,-0.07,0.10,143.19,-43.88,16.75,-0.69,-0.44,1.12,1,7
1772725224.219494,4115126,0.09,0.00,-0.10,-80.12,-77.75,252.12,2.87,5.19,-0.81,-0.02,-0.11,0.00,143.25,-43.88,16.62,-0.81,-0.62,0.56,1,7
1772725224.259861,4115166,0.14,-0.04,-0.11,-80.87,-77.81,252.19,1.62,3.37,-1.87,-0.01,-0.10,0.02,143.25,-43.88,16.62,0.31,-0.37,0.44,1,8
1772725224.299979,4115206,0.09,-0.07,-0.04,-81.19,-77.94,252.31,1.00,1.12,-1.75,0.01,-0.13,0.03,143.25,-43.88,16.62,0.31,-0.37,0.00,1,7
1772725224.340018,4115246,0.07,-0.09,-0.01,-81.25,-77.94,252.37,0.25,0.00,-0.19,0.00,-0.12,0.04,143.25,-43.88,16.69,-0.06,-0.06,0.00,1,10
1772725224.380420,4115286,0.02,-0.05,-0.01,-81.19,-77.94,252.31,-0.62,-0.94,0.94,-0.01,-0.10,0.00,143.19,-43.88,16.69,-0.56,0.25,0.25,1,10
1772725224.420374,4115327,-0.01,0.01,0.02,-80.94,-77.87,252.25,-1.62,-1.12,0.94,-0.06,-0.07,0.00,143.19,-43.88,16.69,-0.56,0.19,0.13,2,10
1772725224.460582,4115367,-0.05,0.04,0.03,-80.69,-77.87,252.19,-2.25,-0.69,0.13,-0.05,-0.04,0.01,143.19,-43.88,16.69,-0.25,0.37,0.25,2,12
1772725224.500781,4115407,-0.01,0.06,0.02,-80.62,-77.87,252.12,-1.44,0.13,-0.06,-0.06,-0.03,0.02,143.19,-43.88,16.69,0.19,0.44,0.19,2,12
1772725224.540923,4115447,0.02,0.00,0.03,-80.75,-77.87,252.12,0.50,0.75,-0.31,-0.03,-0.09,-0.02,143.19,-43.88,16.69,0.37,0.37,0.13,2,13
1772725224.580985,4115487,0.03,-0.02,-0.01,-80.87,-77.87,252.12,0.94,0.50,0.37,-0.08,-0.07,-0.05,143.19,-43.88,16.69,0.56,0.44,0.37,2,9
1772725224.621469,4115527,-0.01,-0.05,0.05,-80.87,-77.87,252.12,0.31,-0.75,-0.81,-0.03,-0.08,-0.03,143.19,-43.88,16.69,-0.50,-0.25,-0.25,2,9
1772725224.661300,4115567,0.00,-0.07,0.04,-80.69,-77.87,252.19,-0.44,-0.81,0.19,0.02,-0.06,0.00,143.19,-43.88,16.69,-0.25,-0.25,-0.13,2,9
1772725224.701518,4115608,0.02,-0.01,0.04,-80.62,-77.87,252.12,-1.12,-0.13,0.69,-0.02,-0.05,0.01,143.19,-43.88,16.69,0.13,-0.19,0.19,2,9
1772725224.741458,4115648,-0.04,0.02,0.05,-80.56,-77.87,252.06,-0.94,0.00,0.56,-0.01,-0.10,0.00,143.19,-43.88,16.69,-0.44,-0.13,0.00,2,6
1772725224.781889,4115688,-0.02,-0.01,0.03,-80.62,-77.81,252.00,-0.56,0.62,0.81,-0.01,-0.08,-0.04,143.19,-43.88,16.69,-0.50,-0.06,0.13,2,5
1772725224.821696,4115728,0.01,0.06,0.00,-80.75,-77.81,251.94,-0.81,0.62,0.62,-0.02,-0.05,-0.01,143.19,-43.88,16.75,-0.31,-0.25,0.00,1,5
1772725224.861731,4115768,0.00,0.02,0.04,-80.87,-77.81,251.94,-0.06,0.75,-0.25,-0.05,-0.09,0.03,143.19,-43.88,16.75,0.19,-0.25,0.06,1,3
1772725224.902061,4115808,0.03,0.00,0.02,-81.00,-77.81,251.94,-0.06,0.81,0.44,-0.05,-0.10,0.02,143.12,-43.88,16.75,-0.06,-0.06,0.19,1,5
1772725224.942093,4115848,0.00,0.02,0.00,-81.00,-77.81,251.94,-0.62,0.56,-0.06,-0.03,-0.07,0.00,143.12,-43.88,16.75,-0.31,0.31,0.06,1,5
1772725224.982439,4115889,0.02,0.02,-0.01,-81.06,-77.81,251.87,-0.88,0.62,-0.31,-0.05,-0.07,-0.01,143.12,-43.88,16.75,-0.19,0.13,0.44,1,5
1772725225.022294,4115929,0.02,0.04,0.00,-81.12,-77.81,251.87,0.06,0.37,-0.25,-0.07,-0.08,0.02,143.12,-43.88,16.75,0.50,0.44,0.31,1,5
1772725225.062516,4115969,0.03,0.00,-0.05,-81.12,-77.81,251.94,0.81,-0.13,0.00,-0.03,-0.09,0.01,143.12,-43.88,16.75,-0.06,0.25,0.06,2,5
1772725225.103017,4116009,-0.01,-0.02,0.03,-81.12,-77.81,251.94,0.19,-0.62,0.06,-0.01,-0.05,0.01,143.12,-43.88,16.75,-0.19,0.06,0.19,2,5
1772725225.142996,4116049,-0.01,-0.01,0.02,-81.06,-77.81,251.94,-0.31,0.06,-0.06,-0.02,-0.08,0.00,143.12,-43.88,16.75,0.00,0.31,-0.06,2,7
1772725225.183012,4116089,0.04,0.01,-0.01,-81.06,-77.81,251.94,-0.25,0.19,-0.13,-0.01,-0.10,-0.02,143.12,-43.88,16.75,0.00,0.56,0.00,2,8
1772725225.223145,4116129,0.04,-0.04,0.02,-81.06,-77.81,251.94,0.00,-0.37,0.19,-0.01,-0.07,-0.01,143.12,-43.88,16.75,-0.37,0.13,0.06,2,8
1772725225.263333,4116170,0.00,0.02,-0.02,-81.06,-77.81,251.94,-0.31,-0.50,0.37,-0.05,-0.04,-0.04,143.12,-43.88,16.75,-0.06,0.44,0.50,2,8
1772725225.303992,4116210,0.03,-0.01,-0.01,-81.00,-77.81,251.94,-0.50,-0.94,-0.81,-0.02,-0.10,0.00,143.12,-43.88,16.75,-0.25,-0.13,0.13,2,6
1772725225.344006,4116250,0.08,-0.06,-0.04,-80.69,-77.81,251.94,-0.62,-2.25,0.44,-0.01,-0.05,-0.01,143.12,-43.88,16.75,-0.19,-0.13,0.31,2,5
1772725225.384014,4116290,0.13,-0.06,-0.07,-80.06,-77.75,251.87,-1.62,-3.87,0.75,-0.01,-0.07,0.00,143.12,-43.88,16.75,-0.31,0.00,-0.19,2,5
1772725225.424014,4116330,0.28,-0.18,-0.19,-79.00,-77.69,251.81,-3.44,-6.87,1.25,-0.04,-0.09,-0.05,143.12,-43.88,16.75,-0.50,0.13,0.19,2,4
1772725225.464071,4116370,0.34,-0.19,-0.29,-77.19,-77.56,251.62,-7.19,-13.69,3.00,-0.05,-0.06,0.00,143.12,-43.88,16.75,0.37,0.19,0.44,1,4
1772725225.504448,4116411,0.01,0.11,-0.08,-74.12,-77.25,251.31,-8.19,-18.87,2.25,-0.07,-0.02,0.01,143.12,-43.88,16.75,0.19,-0.13,-0.31,1,4
1772725225.544279,4116451,-0.08,0.10,0.00,-70.81,-77.06,251.19,-7.31,-18.12,0.13,-0.08,-0.01,0.01,143.12,-43.88,16.75,1.12,0.31,-0.37,1,3
1772725225.584418,4116491,-0.11,0.07,0.02,-68.00,-76.81,251.06,-6.00,-16.25,-0.44,-0.07,-0.05,0.03,143.12,-43.88,16.81,0.13,0.25,-0.25,1,2
1772725225.624734,4116531,-0.16,0.08,0.07,-65.56,-76.62,251.00,-4.94,-12.25,-1.81,-0.05,-0.07,0.00,143.12,-43.88,16.81,0.31,0.69,-0.19,1,2
1772725225.664901,4116571,-0.06,0.02,0.04,-63.81,-76.56,251.00,-3.87,-8.69,-2.19,-0.05,-0.08,0.01,143.12,-43.88,16.81,0.25,0.94,-0.19,1,4
1772725225.705228,4116611,0.04,0.05,0.01,-62.44,-76.44,251.06,-2.19,-7.81,-1.25,0.04,-0.14,-0.04,143.12,-43.81,16.87,0.00,0.37,-0.13,1,4
1772725225.745145,4116651,0.04,0.04,0.03,-61.19,-76.31,251.12,0.37,-8.56,-0.88,0.02,-0.07,-0.05,143.12,-43.81,16.87,1.06,0.37,-0.19,1,5
1772725225.785372,4116692,-0.03,0.02,0.09,-60.00,-76.19,251.25,2.06,-8.50,-0.37,0.02,-0.08,-0.03,143.06,-43.81,17.00,1.56,-0.44,0.19,1,5
1772725225.825163,4116732,-0.09,-0.03,0.17,-59.06,-76.00,251.37,2.75,-7.25,-0.19,0.01,-0.14,0.00,143.06,-43.88,17.00,0.75,0.19,0.94,1,4
1772725225.865336,4116772,-0.16,0.00,0.20,-58.44,-75.87,251.50,2.19,-3.00,0.56,-0.06,-0.13,0.05,143.06,-43.88,17.00,-0.25,1.06,0.62,1,4
1772725225.905582,4116812,-0.20,0.00,0.17,-58.38,-75.87,251.50,0.75,1.31,0.13,-0.06,-0.09,0.01,143.06,-43.88,17.00,-1.31,0.06,0.37,2,6
1772725225.945829,4116852,-0.31,0.14,0.21,-58.81,-75.94,251.50,-0.06,5.19,-1.12,-0.15,0.00,-0.01,143.12,-43.88,16.94,-0.13,0.13,0.94,1,5
1772725225.985621,4116892,-0.43,0.06,0.22,-59.81,-76.19,251.56,1.69,12.13,-2.37,-0.15,-0.11,0.01,143.19,-43.88,16.94,0.25,0.19,0.62,2,6
1772725226.026262,4116932,-0.18,-0.07,0.12,-62.13,-76.62,251.62,3.19,20.50,-2.50,0.00,-0.06,-0.04,143.19,-43.88,16.94,-0.25,-0.50,-1.12,2,5
1772725226.065192,4116971,0.18,-0.23,-0.08,-65.37,-77.12,251.69,1.81,22.87,-3.12,0.10,-0.10,-0.01,143.12,-43.88,16.94,-1.19,-0.31,-0.88,2,3
1772725226.105840,4117012,0.28,-0.28,-0.10,-68.62,-77.50,251.62,-1.44,20.44,-1.37,0.12,-0.13,0.00,143.25,-43.88,16.75,-0.75,0.44,1.69,2,4
1772725226.146243,4117053,0.21,-0.13,-0.14,-71.62,-77.75,251.31,-4.56,17.25,1.87,0.03,-0.19,-0.05,143.25,-43.94,16.69,0.50,0.37,1.12,2,4
1772725226.186519,4117093,0.15,0.01,-0.11,-73.94,-77.81,250.94,-6.19,12.50,2.19,-0.04,-0.05,-0.06,143.31,-43.94,16.62,-0.69,-0.69,0.50,1,4
1772725226.225473,4117132,0.13,0.04,-0.14,-75.50,-77.87,250.62,-5.69,8.31,0.37,-0.07,-0.05,0.01,143.31,-44.00,16.56,-0.69,-1.37,0.50,1,4
1772725226.266165,4117173,0.09,0.08,-0.16,-76.50,-77.94,250.37,-4.00,5.75,0.88,-0.06,0.00,0.04,143.31,-44.00,16.50,-0.50,-1.12,0.25,1,4
1772725226.306986,4117213,0.08,0.04,-0.19,-77.44,-77.94,250.19,-1.31,4.81,0.44,-0.10,0.02,0.05,143.25,-44.06,16.44,-0.50,-0.62,0.56,1,3
1772725226.346960,4117253,0.07,0.00,-0.13,-78.19,-78.00,250.19,0.44,3.31,0.56,-0.11,-0.06,0.00,143.25,-44.06,16.44,-0.06,0.00,0.31,1,3
1772725226.387088,4117293,0.00,0.01,-0.12,-78.81,-78.00,250.12,0.44,3.00,1.00,-0.07,-0.04,-0.03,143.25,-44.06,16.44,0.62,0.13,-0.06,1,3
1772725226.427479,4117334,0.08,-0.01,-0.08,-79.44,-78.00,250.06,0.13,3.00,0.13,-0.01,-0.09,-0.02,143.25,-44.06,16.50,1.19,-0.06,-0.69,0,3
1772725226.467522,4117374,0.07,0.01,-0.04,-79.75,-78.00,250.06,0.44,0.94,-0.13,0.00,-0.11,-0.01,143.19,-44.06,16.62,0.56,-0.50,-0.75,0,3
1772725226.507900,4117414,0.05,0.00,0.00,-79.75,-78.00,250.06,0.94,-0.31,-0.25,0.02,-0.14,-0.02,143.12,-44.00,16.62,0.56,-0.44,-0.81,0,3
1772725226.547764,4117454,0.02,-0.06,0.07,-79.75,-78.00,250.12,0.50,-0.69,0.94,-0.03,-0.10,0.00,143.12,-44.00,16.69,0.50,0.06,-0.88,0,5
1772725226.587802,4117494,0.00,0.02,0.02,-79.75,-77.94,250.06,-0.50,-0.62,1.37,0.00,-0.15,0.00,143.12,-44.00,16.69,-0.31,0.13,-0.25,1,5
1772725226.628042,4117534,0.01,0.08,0.02,-79.62,-77.87,249.94,-1.25,-0.50,1.12,-0.04,-0.09,-0.01,143.12,-44.00,16.69,-0.19,0.50,0.06,1,4
1772725226.668127,4117575,0.00,0.15,0.00,-79.62,-77.87,249.87,-0.69,-0.62,0.00,-0.01,-0.13,0.01,143.12,-44.00,16.69,-0.69,-0.06,0.00,0,4
1772725226.708654,4117615,-0.01,0.07,0.02,-79.50,-77.87,249.94,0.94,-0.50,-0.81,-0.04,-0.11,0.04,143.12,-44.00,16.69,-0.50,-0.50,0.37,1,4
1772725226.748543,4117655,-0.03,0.05,0.04,-79.50,-77.87,250.00,1.69,-0.06,-0.37,-0.02,-0.06,0.02,143.12,-44.00,16.69,-0.19,0.00,0.50,1,4
1772725226.788479,4117695,0.00,-0.03,0.01,-79.62,-77.87,250.06,1.12,0.94,-1.06,-0.02,-0.09,0.03,143.12,-44.00,16.69,0.19,0.00,0.19,1,4
1772725226.828632,4117735,0.07,-0.02,-0.04,-79.69,-77.94,250.12,0.31,0.44,-0.31,-0.02,-0.15,0.00,143.12,-44.00,16.69,-0.56,0.13,0.75,1,6
1772725226.868942,4117775,0.04,0.02,-0.01,-79.69,-77.94,250.12,-0.44,0.00,0.06,-0.02,-0.07,-0.03,143.12,-44.00,16.62,-0.62,0.31,0.75,1,7
1772725226.909221,4117816,0.03,-0.01,0.00,-79.56,-77.94,250.12,0.00,-1.00,-0.94,-0.03,-0.11,0.00,143.19,-44.00,16.56,-0.37,0.19,0.50,1,7
1772725226.949231,4117855,0.00,0.01,0.00,-79.44,-77.94,250.12,0.31,-0.56,-0.31,-0.05,-0.07,-0.01,143.19,-44.00,16.56,-0.13,0.25,0.62,1,5
1772725226.989529,4117896,0.01,-0.01,0.01,-79.25,-77.94,250.19,0.69,-0.81,-0.94,-0.02,-0.06,-0.01,143.19,-44.00,16.56,-0.44,0.62,0.44,1,5
1772725227.029628,4117936,0.00,-0.06,0.01,-79.06,-78.00,250.25,0.56,-1.06,-1.00,-0.04,-0.07,-0.01,143.19,-44.00,16.56,-0.31,0.31,0.31,1,5
1772725227.069605,4117976,0.02,-0.04,0.00,-78.87,-78.00,250.31,0.50,-0.81,-0.69,0.00,-0.07,-0.01,143.19,-44.00,16.56,-0.06,0.37,0.31,1,5
1772725227.110107,4118016,0.00,-0.02,0.01,-78.75,-78.06,250.31,0.88,-0.88,-0.44,-0.01,-0.08,-0.02,143.19,-44.00,16.56,-0.13,0.19,0.19,1,5
1772725227.150016,4118056,-0.01,-0.08,0.04,-78.62,-78.00,250.37,0.69,-0.69,-0.19,0.00,-0.06,-0.02,143.19,-44.00,16.56,-0.19,0.19,-0.13,1,6
1772725227.190081,4118096,0.00,-0.08,0.01,-78.50,-78.00,250.37,-0.06,-0.75,0.19,-0.01,-0.06,-0.01,143.19,-44.00,16.56,0.13,0.19,-0.13,2,6
1772725227.230105,4118137,0.00,-0.03,0.01,-78.44,-78.00,250.37,-0.50,-0.31,0.56,-0.04,-0.04,-0.02,143.19,-44.00,16.56,0.13,0.06,0.00,1,3
1772725227.270832,4118177,-0.01,-0.03,0.01,-78.44,-78.00,250.37,-0.13,-0.13,0.69,-0.03,-0.06,-0.01,143.19,-44.00,16.56,-0.06,0.19,-0.13,1,3
1772725227.311110,4118217,-0.03,0.00,-0.01,-78.50,-78.00,250.31,-0.44,-0.06,1.00,-0.07,-0.05,-0.06,143.19,-44.00,16.56,0.31,0.13,0.19,1,2
1772725227.351220,4118257,0.00,0.02,0.00,-78.44,-77.94,250.31,-0.37,-0.62,-0.37,0.01,-0.11,-0.04,143.19,-44.00,16.56,-0.13,-0.31,-0.31,2,3
1772725227.391001,4118297,0.00,-0.02,0.01,-78.37,-77.94,250.31,0.06,-0.88,0.44,0.00,-0.12,0.00,143.19,-44.00,16.56,-0.19,-0.50,0.13,2,5
1772725227.430945,4118338,0.00,0.00,0.02,-78.31,-77.94,250.31,0.37,-0.25,0.69,0.00,-0.09,0.02,143.19,-44.00,16.56,-0.50,-0.06,0.06,2,5
1772725227.471557,4118378,0.05,-0.04,-0.03,-78.31,-77.94,250.25,-0.94,0.00,0.37,-0.01,-0.11,0.03,143.19,-44.00,16.56,-0.25,0.00,0.06,1,5
1772725227.512136,4118418,0.11,-0.02,-0.09,-78.12,-77.87,250.19,-1.69,-1.62,1.00,0.00,-0.11,0.01,143.19,-44.00,16.56,-0.06,0.19,0.31,1,5
1772725227.551861,4118458,0.16,0.03,-0.17,-77.62,-77.81,250.12,-1.50,-3.44,1.50,0.01,-0.11,-0.01,143.19,-44.00,16.56,-0.88,0.37,0.06,1,5
1772725227.592004,4118498,0.29,-0.11,-0.28,-76.62,-77.75,250.06,-2.25,-8.75,1.44,-0.04,-0.10,0.00,143.25,-44.00,16.50,-0.69,0.13,0.00,1,5
1772725227.632086,4118538,0.39,-0.14,-0.26,-74.50,-77.50,249.94,-4.69,-17.00,3.62,-0.04,-0.06,0.04,143.25,-44.00,16.50,0.13,0.62,0.44,1,5
1772725227.672125,4118579,0.00,0.03,-0.16,-71.25,-77.19,249.75,-5.81,-21.25,3.12,-0.08,-0.03,0.02,143.25,-44.00,16.50,-0.13,0.19,0.44,1,7
1772725227.713038,4118619,-0.24,0.15,0.10,-67.94,-76.81,249.62,-5.19,-19.12,0.81,-0.08,-0.03,0.04,143.25,-44.00,16.50,-0.25,0.44,-0.13,1,7
1772725227.752659,4118659,-0.25,0.16,0.22,-65.50,-76.62,249.62,-2.81,-12.44,-0.81,-0.05,-0.06,0.01,143.25,-44.00,16.50,0.25,0.56,-0.31,1,6
1772725227.792707,4118699,-0.12,0.14,0.19,-64.00,-76.50,249.69,-0.19,-7.19,-1.69,0.00,-0.12,-0.01,143.25,-44.00,16.56,-0.06,0.37,-0.62,1,5
1772725227.832668,4118739,-0.13,0.02,0.20,-63.00,-76.44,249.81,2.31,-4.81,-1.50,0.01,-0.13,-0.04,143.25,-44.00,16.56,-0.44,0.44,-0.56,2,7
1772725227.872552,4118779,-0.08,-0.01,0.15,-62.56,-76.37,250.00,3.69,-1.87,-0.50,0.09,-0.13,-0.07,143.25,-44.00,16.50,-0.13,0.19,0.13,2,7
1772725227.912553,4118819,-0.02,-0.02,0.12,-62.56,-76.37,250.12,3.50,0.31,0.00,0.06,-0.09,-0.04,143.25,-44.00,16.50,0.56,0.31,0.37,2,7
1772725227.952643,4118859,0.00,-0.05,0.02,-62.81,-76.44,250.25,2.50,1.44,-0.56,0.04,-0.16,-0.07,143.25,-44.00,16.56,0.25,0.13,0.44,2,7
1772725227.992676,4118899,0.04,-0.10,-0.01,-63.06,-76.44,250.31,1.12,0.94,-0.25,0.00,-0.08,-0.03,143.25,-44.00,16.56,0.13,0.00,0.37,3,6
1772725228.032988,4118939,-0.06,0.02,0.00,-63.13,-76.44,250.31,0.62,0.94,-0.13,-0.03,-0.06,0.00,143.25,-44.00,16.56,-0.56,-0.56,0.31,3,7
1772725228.072273,4118978,-0.18,-0.01,0.07,-63.50,-76.50,250.37,2.00,3.87,-0.62,-0.05,-0.07,-0.01,143.25,-44.00,16.44,-0.62,-1.75,-0.50,3,6
1772725228.112928,4119019,-0.24,-0.05,0.12,-64.50,-76.62,250.44,3.62,8.13,0.81,-0.15,-0.08,0.01,143.19,-44.06,16.44,0.56,-0.81,-0.25,3,7
1772725228.153223,4119060,0.01,-0.05,-0.07,-66.31,-76.75,250.37,2.69,11.44,3.19,-0.03,-0.16,0.01,143.19,-44.06,16.44,1.19,0.94,0.88,3,7
1772725228.193364,4119100,0.22,0.01,-0.16,-68.44,-76.75,250.12,0.62,11.13,4.94,0.03,-0.08,-0.01,143.25,-44.06,16.50,-0.06,1.12,1.50,3,7
1772725228.233928,4119140,0.29,0.11,-0.21,-70.25,-76.69,249.87,-0.69,8.63,3.44,0.12,-0.08,-0.11,143.25,-44.06,16.44,-1.75,-0.25,-0.19,2,6
1772725228.273051,4119179,0.32,-0.02,-0.18,-71.25,-76.75,249.75,-0.62,2.81,-1.19,0.17,-0.20,-0.13,143.31,-44.06,16.37,-1.81,-2.00,-2.00,1,5
1772725228.313932,4119220,0.01,-0.11,-0.06,-71.00,-76.81,249.81,-1.69,-3.25,-0.94,-0.06,-0.10,-0.03,143.25,-44.06,16.31,0.37,-1.31,0.06,2,6
1772725228.354039,4119260,-0.21,0.05,0.04,-70.50,-76.75,249.75,-1.94,-1.81,1.81,-0.13,-0.09,0.10,143.19,-44.06,16.31,0.75,-0.19,1.00,2,7
1772725228.394187,4119301,-0.18,0.09,0.03,-70.69,-76.69,249.62,-1.00,2.69,1.56,-0.16,-0.05,0.08,143.19,-44.13,16.31,-0.81,0.44,0.94,2,8
1772725228.434374,4119341,-0.08,0.07,-0.05,-71.44,-76.69,249.50,-1.12,5.87,0.69,-0.05,-0.04,0.00,143.25,-44.19,16.19,-1.25,0.44,1.25,2,7
1772725228.474655,4119381,0.07,0.06,-0.13,-72.44,-76.75,249.37,-1.31,7.06,-1.00,0.00,-0.12,-0.03,143.31,-44.19,16.06,-0.81,0.37,0.44,2,7
1772725228.514785,4119421,0.17,0.00,-0.12,-73.44,-76.94,249.37,-0.31,5.56,-1.81,0.02,-0.12,-0.02,143.37,-44.19,16.06,0.31,0.00,0.37,2,5
1772725228.554800,4119461,0.14,-0.01,-0.10,-74.00,-77.00,249.37,0.50,2.81,-0.88,0.05,-0.13,0.00,143.31,-44.19,16.06,0.19,-0.37,0.31,1,4
1772725228.594931,4119501,0.02,-0.03,-0.06,-74.31,-77.00,249.44,1.06,0.75,0.37,0.02,-0.09,0.00,143.31,-44.13,16.12,-0.06,-0.44,0.19,2,5
1772725228.635330,4119541,-0.01,0.01,-0.04,-74.50,-77.00,249.44,0.69,0.94,0.25,-0.07,-0.05,-0.01,143.31,-44.13,16.12,-0.69,-0.19,0.06,2,5
1772725228.675303,4119582,-0.02,-0.02,-0.04,-74.62,-77.06,249.44,0.00,1.50,-0.75,-0.07,-0.05,0.00,143.31,-44.13,16.06,-0.69,0.06,0.13,2,5
1772725228.715864,4119622,-0.04,0.06,-0.07,-74.94,-77.06,249.44,-0.31,2.06,-0.44,-0.09,-0.07,-0.02,143.37,-44.19,16.06,-0.06,0.31,0.94,1,5
1772725228.755550,4119662,0.01,-0.01,-0.08,-75.25,-77.12,249.44,1.12,1.44,-1.31,-0.01,-0.13,0.00,143.37,-44.19,16.06,0.00,-0.13,0.13,1,3
1772725228.795947,4119702,0.06,-0.09,-0.05,-75.44,-77.19,249.56,1.37,0.50,-0.37,-0.02,-0.09,0.02,143.37,-44.19,16.06,-0.25,-0.25,0.06,1,7
1772725228.836040,4119742,0.02,-0.07,-0.03,-75.50,-77.19,249.56,0.50,-0.37,0.06,-0.01,-0.09,0.03,143.31,-44.19,16.06,-0.19,-0.19,-0.06,1,7
1772725228.876146,4119782,0.05,-0.05,-0.06,-75.44,-77.19,249.56,-0.69,0.19,0.06,0.00,-0.13,-0.01,143.31,-44.19,16.06,-0.06,0.13,-0.25,1,8
1772725228.916531,4119823,0.04,-0.01,-0.04,-75.37,-77.12,249.50,-1.31,-1.12,0.94,0.02,-0.10,-0.02,143.31,-44.19,16.12,0.00,0.00,0.19,1,8
1772725228.956350,4119863,-0.03,0.12,0.00,-75.19,-77.06,249.44,-1.06,-1.12,1.25,0.00,-0.06,0.00,143.31,-44.13,16.12,-0.31,0.06,0.06,1,8
1772725228.996558,4119903,-0.04,0.03,-0.03,-75.12,-77.06,249.44,0.19,-0.37,-0.56,-0.05,-0.09,0.00,143.31,-44.13,16.12,-0.06,0.00,0.06,1,8
1772725229.036374,4119943,0.00,0.02,-0.02,-75.12,-77.06,249.44,0.37,0.13,0.00,-0.03,-0.08,0.00,143.31,-44.13,16.12,-0.31,0.06,0.56,1,8
1772725229.076649,4119983,0.00,0.02,-0.04,-75.12,-77.06,249.44,0.31,0.75,-0.94,-0.03,-0.08,0.00,143.31,-44.13,16.12,-0.25,0.13,0.50,1,8
1772725229.116929,4120023,0.04,-0.03,-0.03,-75.19,-77.12,249.44,0.50,0.50,-0.88,-0.01,-0.09,0.02,143.31,-44.13,16.12,-0.37,0.19,0.31,1,8
1772725229.157210,4120063,0.03,-0.04,-0.05,-75.19,-77.12,249.50,0.56,-0.25,-0.31,0.00,-0.09,0.00,143.31,-44.13,16.19,-0.13,0.00,0.25,1,8
1772725229.197300,4120103,0.00,-0.03,-0.05,-75.19,-77.12,249.50,0.44,-0.06,0.06,-0.03,-0.09,-0.01,143.25,-44.13,16.19,-0.19,0.00,0.13,1,4
1772725229.237631,4120144,-0.01,-0.02,-0.03,-75.19,-77.12,249.50,-0.31,-0.19,0.13,-0.05,-0.07,-0.01,143.25,-44.13,16.19,-0.06,0.13,0.06,1,4
1772725229.277299,4120184,0.01,0.00,-0.05,-75.19,-77.12,249.50,-0.69,0.19,0.31,-0.01,-0.08,0.01,143.25,-44.13,16.19,-0.13,0.19,0.19,1,3
1772725229.317450,4120224,0.00,0.00,-0.05,-75.19,-77.12,249.50,-0.25,0.06,0.31,-0.04,-0.05,0.00,143.25,-44.13,16.19,0.00,0.13,0.00,2,5
1772725229.357938,4120264,0.01,-0.01,-0.06,-75.19,-77.12,249.50,0.19,-0.06,0.00,-0.04,-0.07,-0.03,143.25,-44.13,16.19,-0.13,0.25,-0.06,1,6
1772725229.397914,4120304,0.01,0.03,-0.07,-75.12,-77.12,249.50,-0.13,-0.88,0.37,-0.08,-0.07,-0.04,143.25,-44.13,16.19,0.19,0.37,0.37,1,5
1772725229.438285,4120344,-0.02,-0.01,-0.04,-74.94,-77.12,249.50,0.13,-1.50,-0.69,0.00,-0.12,-0.03,143.25,-44.13,16.19,-0.25,0.19,-0.13,1,5
1772725229.477859,4120384,-0.02,-0.01,0.00,-74.69,-77.12,249.50,0.44,-1.12,0.31,-0.03,-0.10,0.00,143.25,-44.13,16.19,-0.19,0.06,0.25,1,5
1772725229.518448,4120425,0.00,-0.03,0.00,-74.62,-77.12,249.50,0.13,0.13,0.00,-0.01,-0.07,0.00,143.25,-44.13,16.19,-0.06,0.00,-0.06,1,6
1772725229.558781,4120465,0.03,-0.03,-0.04,-74.62,-77.12,249.50,-0.37,0.44,-0.06,-0.01,-0.10,-0.04,143.25,-44.13,16.19,-0.25,-0.13,0.13,1,6
1772725229.598482,4120505,0.04,-0.02,-0.08,-74.62,-77.12,249.44,-0.94,-0.44,0.94,0.04,-0.10,-0.06,143.25,-44.13,16.19,0.19,0.13,0.31,1,6
1772725229.638720,4120545,0.11,0.05,-0.12,-74.44,-77.06,249.37,-0.94,-1.62,0.62,0.00,-0.10,0.00,143.25,-44.13,16.19,-0.75,0.00,-0.13,1,6
1772725229.678966,4120585,0.18,-0.09,-0.15,-73.81,-77.00,249.37,-1.56,-4.69,0.31,-0.07,-0.07,0.01,143.25,-44.13,16.19,0.00,-0.06,0.00,1,6
1772725229.719477,4120626,0.12,-0.06,-0.14,-72.81,-76.94,249.31,-2.37,-6.87,1.56,-0.07,-0.07,0.03,143.25,-44.13,16.19,-0.06,0.13,0.19,1,5
1772725229.759524,4120666,0.04,-0.07,-0.10,-71.50,-76.75,249.19,-3.50,-9.31,2.81,-0.03,-0.07,0.00,143.25,-44.13,16.19,-0.50,0.37,0.25,1,4
1772725229.799188,4120706,-0.17,0.01,0.06,-70.06,-76.56,249.00,-5.56,-7.62,1.37,-0.02,-0.07,-0.03,143.25,-44.13,16.19,0.06,0.13,0.06,1,7
1772725229.839420,4120746,-0.14,0.10,0.04,-69.06,-76.44,248.87,-4.87,-3.44,0.00,0.00,-0.06,-0.02,143.25,-44.13,16.19,0.31,0.06,-0.06,1,7
1772725229.880010,4120786,0.00,0.08,0.02,-68.62,-76.44,248.75,-2.44,-1.62,-0.56,0.01,-0.10,-0.04,143.25,-44.13,16.19,-0.13,0.00,-0.37,1,8
1772725229.920358,4120827,0.03,0.03,-0.01,-68.37,-76.44,248.75,0.31,-1.56,0.25,0.03,-0.11,-0.04,143.25,-44.13,16.19,0.06,-0.19,-0.25,2,7
1772725229.960302,4120867,-0.03,-0.01,0.01,-68.25,-76.37,248.75,1.37,-1.19,0.75,0.00,-0.09,-0.02,143.25,-44.13,16.19,0.19,-0.31,-0.13,2,7
1772725230.000388,4120907,-0.03,-0.02,0.00,-68.25,-76.31,248.75,0.62,0.00,0.50,-0.01,-0.05,-0.03,143.25,-44.13,16.19,-0.13,-0.13,0.25,2,7
1772725230.041015,4120947,-0.01,0.00,-0.06,-68.31,-76.37,248.75,-0.13,0.81,-0.13,-0.05,-0.08,0.00,143.25,-44.13,16.19,-0.56,-0.50,0.00,2,8
1772725230.081306,4120987,-0.03,0.05,-0.11,-68.44,-76.37,248.75,-0.19,0.56,-0.06,-0.11,-0.07,-0.01,143.25,-44.13,16.19,0.31,-0.13,0.25,2,8
1772725230.121694,4121028,-0.05,0.06,-0.06,-68.56,-76.37,248.75,0.94,0.88,-0.69,-0.05,-0.08,-0.01,143.25,-44.13,16.19,0.31,-0.25,0.37,2,8
1772725230.161030,4121067,0.04,-0.02,-0.08,-68.81,-76.37,248.81,2.12,1.44,0.31,0.00,-0.13,0.05,143.25,-44.13,16.19,0.37,-0.69,0.13,2,8
1772725230.201038,4121107,-0.02,-0.04,-0.01,-69.06,-76.44,248.87,1.56,1.81,0.25,0.04,-0.13,0.00,143.25,-44.19,16.19,-0.19,-0.44,-0.44,2,4
1772725230.241480,4121148,0.03,-0.09,0.00,-69.56,-76.44,248.87,0.37,3.31,-0.37,0.05,-0.13,-0.05,143.25,-44.19,16.12,-0.69,-0.50,-0.88,2,4
1772725230.281425,4121188,-0.02,0.01,0.00,-70.12,-76.50,248.87,-0.56,3.81,0.75,0.01,-0.16,-0.03,143.25,-44.13,16.12,0.00,-0.56,-0.37,2,4
1772725230.321959,4121229,0.03,0.08,-0.02,-70.75,-76.50,248.75,-0.25,3.56,1.69,0.00,-0.07,-0.01,143.25,-44.13,16.12,-0.06,0.13,0.37,2,4
1772725230.361681,4121268,0.01,0.07,-0.09,-71.37,-76.50,248.69,0.62,3.62,0.81,-0.06,-0.08,0.02,143.25,-44.19,16.12,0.50,-0.06,0.88,2,4
1772725230.401682,4121308,0.06,0.07,-0.14,-72.00,-76.56,248.69,1.06,3.75,0.44,-0.06,-0.06,-0.04,143.31,-44.19,16.06,-0.50,0.31,1.00,2,5
1772725230.441975,4121348,0.10,0.04,-0.17,-72.50,-76.56,248.69,0.56,2.37,-0.69,0.00,-0.12,-0.05,143.31,-44.19,16.06,-0.37,0.00,0.50,2,4
1772725230.482605,4121389,0.13,-0.02,-0.16,-72.56,-76.62,248.75,0.13,0.13,-2.19,0.04,-0.12,-0.01,143.31,-44.19,16.00,-0.81,-0.62,-0.37,2,4
1772725230.523358,4121429,0.07,-0.07,-0.12,-72.31,-76.75,248.87,0.31,-1.81,-1.94,0.00,-0.12,0.00,143.31,-44.25,15.94,-0.37,-1.00,-0.62,2,4
1772725230.562787,4121469,-0.06,-0.06,-0.05,-71.87,-76.75,248.94,0.44,-2.19,-0.75,-0.08,-0.06,0.00,143.31,-44.25,15.94,0.13,-0.06,-0.25,1,4
1772725230.602580,4121509,-0.10,0.01,-0.04,-71.75,-76.69,248.94,-0.06,-0.25,1.37,-0.09,-0.05,0.00,143.31,-44.25,16.00,1.44,0.69,1.12,2,6
1772725230.642352,4121549,0.00,0.08,-0.13,-71.94,-76.69,248.87,0.13,1.25,0.94,0.00,-0.09,0.00,143.31,-44.25,16.06,0.50,0.62,1.06,2,5
1772725230.683103,4121590,0.13,0.03,-0.12,-72.12,-76.69,248.87,0.37,0.88,-0.94,0.09,-0.11,-0.03,143.37,-44.25,16.00,-1.25,-0.06,-0.50,2,5
1772725230.724006,4121630,0.14,-0.05,-0.10,-71.94,-76.75,248.94,-0.75,-1.25,-2.06,0.06,-0.10,-0.04,143.37,-44.25,15.94,-0.69,-0.13,-0.81,2,8
1772725230.763437,4121670,0.00,-0.02,-0.04,-71.50,-76.81,249.00,-0.88,-2.50,-0.94,0.02,-0.07,-0.04,143.37,-44.19,16.00,0.62,-0.13,-0.50,2,8
1772725230.803128,4121710,-0.10,0.05,0.02,-71.12,-76.75,249.00,0.75,-2.12,0.50,0.01,-0.10,-0.05,143.37,-44.19,16.00,-0.25,0.06,0.06,2,7
1772725230.843944,4121750,-0.09,-0.03,0.01,-71.00,-76.75,249.00,1.06,-0.25,0.62,-0.08,-0.06,0.00,143.37,-44.19,16.00,-0.06,-0.31,0.25,2,7
1772725230.884255,4121791,-0.08,0.02,-0.04,-71.12,-76.69,249.00,-0.06,1.25,0.62,-0.04,-0.06,0.00,143.31,-44.25,16.00,-0.50,-0.69,0.19,2,7
1772725230.924795,4121831,0.02,-0.02,-0.07,-71.50,-76.75,249.00,-0.69,3.31,-0.69,0.00,-0.09,0.01,143.31,-44.25,15.94,-0.50,-0.56,-0.31,2,8
1772725230.963930,4121871,0.10,0.00,-0.13,-72.06,-76.81,248.94,0.00,3.37,-0.19,0.00,-0.11,-0.03,143.31,-44.25,15.94,0.31,-0.50,0.25,2,8
1772725231.003723,4121910,0.11,0.01,-0.14,-72.44,-76.81,248.94,0.44,1.31,1.19,0.00,-0.05,-0.03,143.31,-44.25,15.94,0.37,-0.37,0.56,1,7
1772725231.044488,4121951,0.06,0.01,-0.13,-72.50,-76.75,248.94,0.62,-0.62,0.62,0.01,-0.11,-0.01,143.31,-44.25,15.94,-0.37,-0.56,-0.19,2,7
1772725231.085026,4121991,0.01,0.00,-0.11,-72.37,-76.75,248.94,-0.56,-0.94,0.13,-0.04,-0.08,0.00,143.31,-44.25,15.94,-0.19,-0.31,0.06,2,7
1772725231.125956,4122032,-0.03,0.05,-0.10,-72.19,-76.75,248.87,-0.88,-0.75,-0.13,-0.05,-0.08,0.00,143.31,-44.25,15.94,-0.25,-0.25,0.06,2,5
1772725231.166447,4122073,0.00,0.05,-0.04,-72.19,-76.75,248.87,-0.06,-0.19,-0.62,-0.01,-0.07,-0.02,143.31,-44.25,15.94,-0.25,-0.19,0.19,2,5
1772725231.205268,4122112,0.02,0.01,-0.08,-72.25,-76.75,248.94,1.06,0.62,-0.31,-0.01,-0.08,0.00,143.31,-44.25,15.94,0.37,-0.19,0.31,2,4
1772725231.245721,4122152,0.02,-0.03,-0.08,-72.31,-76.75,248.94,1.19,0.19,-0.19,0.01,-0.11,0.00,143.31,-44.25,15.94,0.00,-0.06,0.06,2,5
1772725231.286789,4122193,0.03,-0.05,-0.11,-72.37,-76.75,249.00,0.31,0.06,-0.19,0.00,-0.13,0.00,143.31,-44.25,15.94,-0.31,-0.13,-0.13,2,6
1772725231.328489,4122235,0.03,-0.03,-0.08,-72.31,-76.75,249.00,-0.88,-0.13,0.06,0.00,-0.09,-0.02,143.31,-44.25,15.94,-0.19,-0.13,-0.31,2,4
1772725231.372219,4122279,0.01,0.02,-0.06,-72.25,-76.75,248.94,-0.50,-0.19,0.25,0.00,-0.07,-0.01,143.31,-44.25,15.94,0.00,-0.19,0.13,2,5
1772725231.414042,4122320,-0.02,0.00,-0.08,-72.25,-76.75,248.94,0.44,0.13,0.06,-0.04,-0.08,-0.04,143.31,-44.25,15.94,-0.31,-0.13,-0.06,2,4
1772725231.454366,4122361,-0.01,0.07,-0.10,-72.25,-76.75,248.94,0.19,0.06,0.25,-0.05,-0.05,0.00,143.31,-44.25,15.94,0.13,0.06,0.44,2,4
1772725231.495468,4122401,-0.01,0.00,-0.09,-72.25,-76.81,248.94,0.56,-0.13,-1.37,-0.01,-0.14,-0.02,143.31,-44.25,15.94,-0.37,-0.56,-0.06,2,4
1772725231.535936,4122442,0.04,-0.05,-0.10,-72.25,-76.81,249.00,0.69,-0.56,-0.31,-0.01,-0.11,0.00,143.31,-44.25,15.94,-0.19,-0.37,0.25,2,3
1772725231.576426,4122483,0.03,-0.01,-0.10,-72.25,-76.81,249.00,0.13,-0.19,0.25,0.00,-0.09,0.02,143.31,-44.25,15.94,-0.13,-0.13,0.00,2,4
1772725231.617123,4122523,0.04,-0.01,-0.11,-72.25,-76.81,249.00,-0.69,-0.25,0.19,-0.01,-0.12,-0.03,143.31,-44.25,15.94,-0.31,-0.25,-0.25,2,7
1772725231.656309,4122563,0.00,0.00,-0.10,-72.19,-76.81,249.00,-0.81,-0.31,0.62,0.01,-0.08,-0.03,143.31,-44.25,15.94,0.13,0.13,0.13,2,7
1772725231.697105,4122603,0.06,0.08,-0.14,-72.19,-76.75,248.94,-0.50,-0.56,0.50,-0.02,-0.06,-0.03,143.31,-44.25,15.94,-0.37,-0.19,-0.06,2,7
1772725231.737786,4122644,0.07,0.01,-0.12,-72.00,-76.75,248.94,0.00,-1.75,-0.31,-0.04,-0.08,-0.02,143.31,-44.25,15.94,-0.13,-0.13,-0.06,2,7
1772725231.778470,4122685,-0.01,0.03,-0.11,-71.69,-76.75,248.94,-0.13,-2.00,0.06,-0.02,-0.08,0.00,143.31,-44.25,15.94,0.19,0.62,0.00,2,7
1772725231.817486,4122724,0.03,0.03,-0.10,-71.37,-76.75,249.00,0.25,-1.56,-0.94,0.00,-0.08,-0.01,143.31,-44.25,15.94,0.00,0.31,-0.06,2,9
1772725231.857143,4122764,0.01,0.02,-0.09,-71.06,-76.75,249.06,0.50,-2.12,-0.94,-0.01,-0.09,-0.02,143.31,-44.25,15.94,0.13,0.37,0.19,2,9
1772725231.897568,4122804,-0.02,0.00,-0.06,-70.75,-76.75,249.06,0.88,-1.62,-0.44,0.00,-0.12,-0.03,143.31,-44.25,15.94,0.19,0.06,-0.13,2,9
1772725231.938076,4122844,0.00,-0.04,-0.07,-70.56,-76.69,249.12,0.88,-1.50,-0.56,0.02,-0.09,-0.01,143.31,-44.25,15.94,0.19,0.13,-0.19,2,10
1772725231.979021,4122885,-0.03,-0.03,-0.03,-70.31,-76.69,249.19,0.00,-1.25,0.00,0.00,-0.11,-0.03,143.31,-44.25,15.94,0.13,0.13,-0.06,3,13
1772725232.022866,4122929,0.03,-0.01,-0.07,-70.31,-76.69,249.19,-0.31,0.13,0.25,0.01,-0.10,-0.03,143.31,-44.25,15.94,0.19,0.19,0.00,3,11
1772725232.066096,4122972,0.02,0.00,-0.12,-70.31,-76.69,249.12,-0.69,-0.88,0.06,0.01,-0.11,-0.04,143.31,-44.25,15.94,0.13,0.19,-0.06,3,11
1772725232.106709,4123013,0.02,0.03,-0.10,-69.94,-76.62,249.12,-0.75,-2.25,0.69,0.04,-0.04,0.01,143.31,-44.25,15.94,0.50,0.31,0.25,3,11
1772725232.147695,4123054,-0.05,0.10,-0.06,-69.69,-76.62,249.12,0.56,-1.44,-0.31,-0.03,-0.04,-0.03,143.31,-44.25,15.94,-0.06,0.19,-0.31,3,10
1772725232.188078,4123094,-0.04,-0.02,-0.01,-69.50,-76.69,249.25,1.62,-0.88,-1.31,-0.03,-0.12,-0.03,143.31,-44.25,15.94,0.00,-0.31,-0.06,3,11
1772725232.228406,4123135,-0.02,-0.02,0.00,-69.56,-76.69,249.31,0.69,0.69,-0.06,-0.01,-0.07,0.00,143.31,-44.25,15.94,0.19,-0.37,0.25,2,8
1772725232.268310,4123175,0.00,-0.03,-0.03,-69.75,-76.69,249.31,0.31,2.00,-0.50,0.01,-0.12,0.00,143.31,-44.25,15.94,-0.25,-0.06,-0.25,2,7
1772725232.308226,4123215,0.00,0.00,-0.02,-70.19,-76.75,249.25,-0.13,3.06,0.19,0.00,-0.12,-0.03,143.31,-44.25,15.94,0.13,-0.19,0.44,2,7
1772725232.348674,4123255,0.01,0.05,-0.06,-70.69,-76.75,249.25,-0.06,3.50,0.81,0.01,-0.07,-0.06,143.31,-44.25,15.94,0.44,0.13,0.62,1,7
1772725232.389124,4123296,0.01,0.01,-0.11,-71.25,-76.81,249.19,0.50,3.50,0.19,-0.01,-0.11,-0.03,143.31,-44.25,15.94,0.13,-0.44,-0.19,1,3
1772725232.429792,4123336,0.06,-0.04,-0.14,-71.81,-76.81,249.19,0.06,3.06,0.56,-0.01,-0.06,-0.01,143.31,-44.25,15.94,0.06,-0.25,0.13,1,2
1772725232.469129,4123376,0.08,-0.01,-0.15,-72.19,-76.87,249.12,-0.31,1.75,0.56,0.00,-0.08,0.00,143.31,-44.25,15.94,-0.06,0.06,0.19,1,1
1772725232.509407,4123416,0.04,-0.01,-0.15,-72.31,-76.87,249.12,-0.44,0.44,0.31,-0.02,-0.04,-0.05,143.31,-44.25,15.94,-0.06,-0.06,0.13,1,2
1772725232.549868,4123456,0.05,0.05,-0.16,-72.31,-76.87,249.12,-0.25,-0.06,0.13,-0.01,-0.08,0.02,143.31,-44.25,15.94,-0.19,0.06,0.06,1,2
1772725232.590957,4123497,0.04,0.02,-0.13,-72.25,-76.87,249.12,-0.25,-0.62,-0.25,-0.01,-0.11,0.00,143.31,-44.25,15.94,-0.75,-0.25,-0.75,1,3
1772725232.631795,4123538,-0.06,0.01,-0.13,-72.12,-76.87,249.12,-0.62,-0.56,-0.13,-0.03,-0.04,-0.03,143.31,-44.25,16.00,0.75,0.13,-0.50,2,4
1772725232.674261,4123581,0.07,0.02,-0.12,-72.12,-76.87,249.12,-0.19,-0.31,-0.19,0.06,-0.12,0.00,143.25,-44.25,16.00,-0.13,0.19,-0.69,2,4
1772725232.714494,4123621,0.12,-0.05,-0.03,-71.94,-76.81,249.12,0.31,-1.25,0.37,0.07,-0.09,-0.08,143.31,-44.25,16.00,0.37,0.62,-0.37,2,4
1772725232.758344,4123665,0.00,0.02,-0.03,-71.69,-76.75,249.12,-0.62,-2.06,0.37,0.03,-0.12,-0.07,143.25,-44.25,16.06,0.94,0.19,-0.19,2,4
1772725232.798878,4123706,-0.04,0.08,0.00,-71.31,-76.75,249.12,0.00,-2.12,0.56,0.01,-0.11,0.00,143.25,-44.25,16.12,0.13,0.25,0.00,2,4
1772725232.839787,4123746,-0.07,0.04,0.00,-71.06,-76.75,249.12,0.31,-1.12,-0.31,0.02,-0.11,-0.04,143.25,-44.25,16.06,-0.50,-0.19,-0.25,2,4
1772725232.880263,4123787,-0.07,0.00,0.00,-71.00,-76.75,249.12,0.19,0.50,-0.31,-0.04,-0.12,0.00,143.25,-44.25,16.06,-0.19,-0.44,0.25,2,6
1772725232.920502,4123827,-0.01,0.03,-0.04,-71.19,-76.75,249.12,-0.31,1.56,0.06,-0.04,-0.08,0.00,143.25,-44.25,16.06,-0.69,-0.25,0.44,2,5
1772725232.960671,4123867,0.03,-0.01,-0.13,-71.56,-76.75,249.12,-0.06,2.75,-0.31,-0.02,-0.10,-0.05,143.25,-44.25,16.06,-0.25,0.06,0.37,2,5
1772725233.000678,4123907,0.08,0.00,-0.16,-71.87,-76.81,249.06,-0.37,1.75,0.13,0.01,-0.10,-0.01,143.25,-44.25,16.06,0.06,0.06,0.44,2,4
1772725233.041253,4123948,0.04,0.11,-0.16,-72.00,-76.81,249.06,0.00,0.50,0.37,-0.01,-0.08,-0.03,143.25,-44.25,16.06,-0.31,0.25,0.25,1,3
1772725233.082712,4123989,0.06,-0.02,-0.12,-72.00,-76.81,249.12,0.62,-0.19,-1.12,-0.05,-0.08,-0.03,143.25,-44.25,16.06,-0.13,-0.06,-0.06,1,3
1772725233.123384,4124030,-0.01,0.02,-0.07,-71.94,-76.81,249.12,0.13,-0.94,-0.06,-0.01,-0.06,0.00,143.25,-44.25,16.06,-0.06,0.19,0.37,1,3
1772725233.162343,4124069,-0.01,0.00,-0.06,-71.87,-76.81,249.12,0.19,-0.19,-0.50,-0.03,-0.07,-0.05,143.25,-44.25,16.06,-0.25,0.62,0.13,1,3
1772725233.202960,4124110,0.00,0.01,-0.07,-71.81,-76.87,249.12,0.00,0.37,-0.69,0.00,-0.10,-0.05,143.25,-44.25,16.06,0.19,0.37,0.44,1,3
1772725233.245172,4124152,0.02,0.02,-0.13,-71.81,-76.87,249.19,0.56,0.25,-0.56,0.00,-0.07,-0.03,143.25,-44.25,16.06,0.19,0.06,0.25,2,4
1772725233.286503,4124193,0.01,-0.05,-0.07,-71.87,-76.87,249.19,1.12,-0.13,-0.25,0.00,-0.07,0.00,143.25,-44.25,16.06,-0.19,-0.06,-0.13,2,2
1772725233.330410,4124237,0.00,-0.05,-0.10,-71.87,-76.87,249.19,-0.19,0.06,0.37,-0.01,-0.07,-0.02,143.25,-44.25,16.06,0.00,0.00,-0.06,2,2
1772725233.371324,4124278,0.00,0.02,-0.08,-71.87,-76.87,249.19,-0.94,0.06,0.56,0.00,-0.09,-0.03,143.25,-44.25,16.06,-0.25,-0.19,-0.31,2,5
1772725233.411864,4124318,-0.02,0.06,-0.09,-71.81,-76.87,249.12,-0.75,0.50,0.62,-0.05,-0.04,-0.03,143.25,-44.25,16.06,0.13,0.31,-0.19,2,5
1772725233.452067,4124359,0.06,0.03,-0.14,-71.81,-76.87,249.12,-0.31,0.44,0.25,-0.01,-0.07,0.00,143.25,-44.25,16.06,0.13,-0.06,-0.19,2,5
1772725233.492441,4124399,0.00,0.04,-0.12,-71.81,-76.87,249.12,0.13,-0.19,0.37,-0.06,-0.07,-0.07,143.25,-44.25,16.06,0.13,0.44,0.06,2,5
1772725233.533595,4124440,0.00,0.00,-0.13,-71.81,-76.87,249.19,0.56,-0.44,-0.88,-0.01,-0.14,0.00,143.25,-44.25,16.06,-0.25,-0.19,-0.37,2,6
1772725233.573727,4124480,0.03,-0.03,-0.07,-71.69,-76.87,249.19,0.00,-0.94,0.50,0.03,-0.12,-0.01,143.25,-44.25,16.06,-0.19,-0.31,-0.06,2,6
1772725233.613581,4124520,-0.01,0.02,-0.07,-71.56,-76.87,249.19,-0.31,-0.44,0.31,0.00,-0.11,-0.01,143.25,-44.25,16.06,-0.25,-0.06,0.00,2,6
1772725233.653852,4124560,0.01,0.02,-0.10,-71.56,-76.87,249.19,-0.62,0.44,0.31,-0.02,-0.14,-0.03,143.25,-44.25,16.06,0.00,-0.06,0.13,1,5
1772725233.694026,4124601,0.00,0.04,-0.12,-71.56,-76.81,249.12,-0.50,0.00,0.88,0.00,-0.08,-0.02,143.25,-44.25,16.06,0.19,0.00,0.31,2,5
1772725233.735433,4124642,0.04,0.14,-0.12,-71.62,-76.81,249.12,0.00,-0.13,-0.19,0.00,-0.08,-0.01,143.25,-44.25,16.06,-0.44,-0.37,-0.13,1,6
1772725233.776989,4124683,0.00,0.01,-0.10,-71.56,-76.87,249.12,0.50,-0.25,-0.69,-0.06,-0.08,-0.01,143.25,-44.25,16.06,0.31,-0.13,0.37,1,3
1772725233.819503,4124726,0.03,0.07,-0.15,-71.56,-76.87,249.12,0.19,-0.37,-0.13,-0.01,-0.06,-0.02,143.25,-44.25,16.06,-0.19,0.19,0.50,1,3
1772725233.862387,4124769,0.03,0.02,-0.11,-71.56,-76.87,249.19,0.37,-0.75,-0.94,-0.02,-0.04,-0.03,143.25,-44.25,16.06,-0.50,0.25,0.31,1,5
1772725233.903245,4124810,0.01,0.02,-0.11,-71.31,-76.87,249.19,0.44,-0.94,-0.81,-0.02,-0.07,-0.01,143.25,-44.25,16.06,-0.06,0.00,0.44,2,6
1772725233.943798,4124850,0.00,0.00,-0.11,-71.19,-76.87,249.25,1.31,-0.81,-0.31,0.00,-0.09,-0.03,143.25,-44.25,16.06,-0.25,0.25,0.00,2,4
1772725233.984516,4124891,0.00,-0.06,-0.10,-71.06,-76.87,249.31,0.69,-0.88,-0.25,-0.03,-0.09,-0.01,143.25,-44.25,16.06,-0.25,0.06,0.06,2,5
1772725234.025051,4124931,-0.03,-0.03,-0.05,-70.94,-76.87,249.31,-0.69,-0.69,0.13,0.00,-0.06,-0.02,143.25,-44.25,16.06,0.06,0.06,0.13,1,5
1772725234.064784,4124971,0.00,0.05,-0.07,-70.94,-76.87,249.31,-0.31,0.00,0.00,-0.01,-0.07,-0.02,143.25,-44.25,16.06,0.00,-0.19,-0.37,1,6
1772725234.105484,4125012,0.00,0.02,-0.10,-70.94,-76.87,249.31,0.25,-0.13,0.31,0.01,-0.04,-0.06,143.25,-44.25,16.06,-0.13,-0.37,-0.50,1,5
1772725234.146140,4125052,0.00,-0.05,-0.15,-70.94,-76.87,249.31,0.37,0.19,0.06,-0.02,-0.05,-0.02,143.25,-44.25,16.06,0.44,-0.37,-0.50,1,5
1772725234.187271,4125093,-0.01,0.00,-0.16,-70.94,-76.87,249.31,0.69,-0.06,0.62,-0.05,-0.03,-0.02,143.19,-44.25,16.12,0.44,-0.88,-0.50,1,6
1772725234.226328,4125133,0.00,-0.14,-0.12,-71.00,-76.87,249.31,1.50,-0.62,-0.06,-0.10,-0.07,0.00,143.12,-44.25,16.06,-0.56,-1.56,-2.06,2,7
1772725234.265950,4125172,-0.10,-0.14,-0.10,-70.94,-76.81,249.31,-0.56,-1.00,3.06,-0.09,-0.19,0.02,143.06,-44.25,16.19,2.75,0.25,0.94,1,4
1772725234.305941,4125213,0.01,0.18,-0.11,-71.12,-76.62,249.06,-2.87,0.88,4.50,0.08,-0.08,0.04,143.06,-44.25,16.31,1.19,1.06,1.12,2,4
1772725234.347325,4125254,0.26,0.27,-0.18,-71.37,-76.56,248.87,-1.75,1.06,-0.06,0.08,-0.12,-0.07,143.06,-44.25,16.25,-1.25,0.13,-1.25,2,5
1772725234.388346,4125295,0.18,0.12,-0.13,-71.25,-76.56,248.87,0.13,-2.19,-2.12,0.17,-0.15,-0.13,143.06,-44.19,16.31,-0.37,-0.56,-1.31,2,4
1772725234.427320,4125334,0.01,0.02,-0.03,-70.69,-76.62,249.00,1.75,-4.06,-2.06,-0.01,-0.17,-0.02,142.94,-44.19,16.31,0.06,-1.31,-1.75,2,4
1772725234.466552,4125373,-0.15,-0.12,0.07,-70.06,-76.62,249.19,1.81,-3.94,0.25,-0.12,-0.12,0.06,142.87,-44.19,16.44,1.87,-0.25,0.31,2,3
1772725234.506568,4125413,-0.12,0.06,0.02,-70.00,-76.50,249.12,-0.50,0.69,2.87,-0.07,-0.07,0.07,142.81,-44.25,16.44,-0.06,0.56,1.25,2,3
1772725234.546674,4125453,-0.02,0.13,-0.06,-70.44,-76.50,249.00,-1.94,3.81,0.25,-0.03,-0.03,0.00,142.87,-44.25,16.37,-1.87,0.50,0.81,2,3
1772725234.586911,4125493,0.08,0.12,-0.15,-71.00,-76.56,248.94,-1.87,4.50,-2.62,0.00,-0.04,-0.08,143.00,-44.25,16.25,-1.50,0.25,0.44,2,3
1772725234.626820,4125533,0.10,0.10,-0.16,-71.50,-76.75,249.00,0.50,2.69,-2.87,-0.02,-0.05,-0.04,143.00,-44.25,16.19,-0.13,-0.19,0.50,2,2
1772725234.666665,4125573,0.08,-0.04,-0.15,-71.81,-76.81,249.12,3.00,1.00,-1.69,0.00,-0.03,-0.03,143.00,-44.25,16.19,0.69,0.25,0.88,2,4
1772725234.706777,4125613,0.05,-0.08,-0.11,-72.06,-76.87,249.31,2.81,0.62,-1.00,0.01,-0.08,-0.06,143.06,-44.25,16.19,0.25,0.37,0.62,2,4
1772725234.747373,4125654,0.05,-0.14,-0.12,-72.12,-76.94,249.37,0.56,0.50,-1.12,-0.05,-0.07,-0.01,143.06,-44.25,16.19,-0.50,-0.06,0.25,2,5
1772725234.787958,4125694,-0.04,-0.05,-0.07,-72.12,-77.00,249.37,-1.25,0.88,-0.69,-0.06,0.00,-0.02,143.06,-44.25,16.19,-0.37,-0.06,0.37,2,5
1772725234.827671,4125734,-0.02,0.06,-0.09,-72.31,-77.00,249.31,-0.94,1.81,-0.37,-0.04,-0.02,-0.05,143.06,-44.25,16.19,0.31,0.13,0.19,2,5
1772725234.867445,4125774,0.03,0.00,-0.10,-72.69,-77.06,249.31,1.00,2.25,0.31,-0.01,-0.04,-0.03,143.06,-44.25,16.19,1.06,0.50,0.13,2,9
1772725234.907591,4125814,0.00,-0.01,-0.12,-73.12,-77.06,249.37,1.44,2.06,0.75,-0.02,-0.05,-0.05,143.00,-44.25,16.25,0.88,0.56,0.19,2,9
1772725234.948053,4125855,0.06,-0.05,-0.10,-73.50,-77.06,249.37,0.75,1.62,0.13,0.02,-0.06,-0.04,143.00,-44.25,16.25,0.44,-0.31,-0.19,2,9
1772725234.989046,4125895,0.06,-0.06,-0.09,-73.62,-77.06,249.37,-0.37,0.19,0.19,0.00,-0.04,-0.06,143.00,-44.25,16.25,-0.19,-0.50,-0.62,2,9
1772725235.029263,4125936,0.02,-0.01,-0.07,-73.56,-77.06,249.31,-1.25,-0.62,0.19,0.00,-0.03,-0.06,142.94,-44.25,16.31,-0.13,-0.37,-0.37,2,8
1772725235.068635,4125975,0.00,0.04,-0.06,-73.50,-77.06,249.31,-0.88,-0.62,0.75,-0.03,-0.08,-0.02,142.94,-44.25,16.31,0.56,-0.56,-0.06,2,7
1772725235.109157,4126016,-0.04,0.07,-0.06,-73.50,-77.00,249.25,0.06,-0.62,1.37,-0.06,-0.03,-0.04,142.94,-44.25,16.31,0.19,-0.19,-0.06,1,6
1772725235.149603,4126056,-0.01,0.02,-0.06,-73.56,-77.00,249.25,0.19,0.00,0.00,-0.01,-0.06,-0.04,142.94,-44.25,16.31,0.00,-0.56,-0.50,1,5
1772725235.190361,4126097,0.01,-0.01,-0.07,-73.56,-77.00,249.25,-0.13,0.31,0.00,-0.03,-0.08,0.00,142.94,-44.25,16.31,0.13,-0.37,-0.31,1,5
1772725235.231260,4126138,0.00,0.00,-0.09,-73.69,-77.00,249.19,-0.37,0.94,0.62,-0.02,-0.03,0.01,142.94,-44.25,16.31,-0.13,-0.06,-0.06,1,5
1772725235.270039,4126177,0.06,0.06,-0.10,-73.81,-77.00,249.19,-1.00,0.69,0.31,-0.01,-0.07,-0.02,142.94,-44.25,16.31,0.19,0.13,-0.06,1,2
1772725235.310831,4126217,0.04,0.11,-0.10,-73.94,-77.00,249.12,-0.44,0.13,0.13,0.00,-0.07,-0.03,142.94,-44.25,16.31,0.13,0.13,-0.06,1,2
1772725235.352996,4126260,0.03,0.06,-0.07,-73.94,-77.00,249.12,0.56,-0.62,0.00,0.00,-0.07,0.00,142.94,-44.25,16.31,0.25,-0.06,0.00,1,2
1772725235.394238,4126301,0.01,0.00,-0.07,-73.87,-76.94,249.19,0.69,-0.69,-0.31,-0.01,-0.05,-0.01,142.94,-44.25,16.31,0.06,0.00,-0.19,2,2
1772725235.438118,4126344,0.00,0.00,-0.05,-73.75,-76.94,249.19,-0.06,-0.56,-0.50,-0.04,-0.06,-0.01,142.94,-44.25,16.31,0.13,-0.13,0.13,2,2
1772725235.478567,4126385,0.01,0.00,-0.04,-73.75,-76.94,249.19,0.00,0.06,-0.13,0.00,-0.06,-0.05,142.94,-44.25,16.31,0.37,0.13,0.00,2,4
1772725235.519577,4126426,0.00,-0.01,-0.09,-73.75,-76.94,249.19,0.25,0.06,-0.25,-0.02,-0.06,-0.02,142.94,-44.25,16.31,-0.06,0.19,-0.06,2,4
1772725235.559721,4126466,0.01,0.00,-0.05,-73.75,-76.94,249.19,0.31,-0.37,0.00,-0.07,-0.04,-0.06,142.94,-44.25,16.31,0.44,0.19,0.00,2,7
1772725235.600612,4126507,0.02,0.05,-0.10,-73.75,-76.94,249.19,0.31,-0.25,-0.50,0.00,-0.07,-0.06,142.94,-44.25,16.37,-0.06,0.13,-0.25,2,8
1772725235.641303,4126548,0.00,-0.04,-0.06,-73.69,-77.00,249.25,0.88,-0.88,-0.88,0.00,-0.07,-0.04,142.94,-44.25,16.37,0.13,-0.25,0.00,2,8
1772725235.681511,4126588,-0.02,-0.03,-0.05,-73.56,-77.00,249.25,0.19,-1.00,0.37,0.00,-0.04,-0.02,142.94,-44.25,16.37,0.00,-0.25,0.19,2,8
1772725235.720960,4126627,0.01,0.00,-0.03,-73.44,-77.00,249.25,-0.56,0.06,-0.37,0.00,-0.02,-0.05,142.94,-44.25,16.37,0.06,0.06,-0.19,2,8
1772725235.761791,4126668,0.06,0.00,-0.07,-73.44,-77.00,249.25,-0.50,-0.56,0.06,-0.01,-0.10,-0.03,142.94,-44.25,16.31,-0.62,-0.25,-0.06,2,8
1772725235.802266,4126709,0.04,0.01,-0.10,-73.31,-76.94,249.25,-0.44,-1.25,1.06,-0.01,-0.01,-0.06,142.94,-44.25,16.31,-0.13,0.19,0.13,2,7
1772725235.844035,4126750,0.06,-0.03,-0.15,-73.00,-76.94,249.25,-0.75,-2.44,-0.13,-0.01,-0.03,-0.05,142.94,-44.25,16.31,0.25,-0.25,-0.25,2,7
1772725235.882966,4126789,0.05,-0.03,-0.13,-72.44,-76.87,249.19,-1.44,-4.06,0.50,-0.03,-0.05,-0.02,142.94,-44.25,16.31,-0.25,-0.13,-0.19,1,7
1772725235.922452,4126829,-0.05,0.05,-0.07,-71.69,-76.81,249.19,-1.06,-4.25,0.56,-0.04,-0.02,-0.04,142.94,-44.25,16.31,-0.37,-0.06,-0.06,1,7
1772725235.962822,4126869,-0.09,0.08,0.00,-71.19,-76.75,249.19,-0.06,-2.19,-0.44,-0.03,0.00,-0.04,142.94,-44.25,16.31,0.50,0.13,-0.50,1,4
1772725236.003964,4126911,-0.02,0.04,-0.02,-71.00,-76.75,249.19,0.88,-0.94,-0.44,0.03,-0.08,-0.04,142.94,-44.25,16.31,0.25,0.19,-0.19,1,6
1772725236.045952,4126952,0.02,-0.02,-0.01,-71.00,-76.75,249.25,1.19,-0.37,-0.31,0.06,-0.07,-0.08,142.94,-44.25,16.31,-0.06,-0.19,-0.56,1,6
1772725236.090071,4126997,0.00,-0.08,0.01,-71.00,-76.75,249.25,0.13,0.00,-0.25,-0.04,-0.06,-0.02,142.94,-44.25,16.31,0.37,-0.69,-0.56,2,7
1772725236.131081,4127038,-0.06,0.03,-0.02,-71.12,-76.75,249.25,-0.37,1.44,1.25,-0.06,-0.06,-0.02,142.87,-44.25,16.37,1.12,0.69,0.88,2,7
1772725236.171428,4127078,0.09,0.11,-0.12,-71.56,-76.69,249.19,0.06,2.31,1.19,0.06,-0.09,-0.07,142.87,-44.25,16.37,0.06,0.06,0.25,2,9
1772725236.212270,4127119,0.14,0.01,-0.12,-71.75,-76.75,249.19,0.25,0.37,-1.31,0.06,-0.08,-0.07,142.94,-44.25,16.37,-0.81,-0.44,-0.94,2,9
1772725236.253348,4127159,0.03,-0.01,-0.09,-71.50,-76.75,249.19,-0.94,-1.19,-0.81,0.00,-0.02,-0.02,142.87,-44.25,16.37,-0.06,-0.56,-0.56,2,12
1772725236.294170,4127200,-0.03,0.04,-0.05,-71.31,-76.75,249.19,0.31,-0.62,-0.81,-0.03,-0.06,-0.01,142.87,-44.25,16.37,-0.13,-0.19,-0.25,2,10
1772725236.334876,4127241,0.10,-0.11,-0.07,-71.25,-76.75,249.25,0.88,-1.12,1.00,-0.05,-0.03,-0.02,142.87,-44.25,16.37,0.25,-0.06,0.37,2,11
1772725236.374060,4127280,0.01,-0.06,-0.03,-71.12,-76.69,249.19,-0.19,-1.25,2.31,-0.04,-0.04,-0.04,142.94,-44.25,16.31,-0.81,-0.25,0.25,2,10
1772725236.415172,4127321,0.01,-0.05,-0.11,-70.94,-76.62,249.12,-1.94,-0.88,-0.62,0.01,-0.05,-0.03,142.94,-44.25,16.25,-1.06,-0.56,-0.06,2,8
1772725236.458127,4127365,0.04,0.06,-0.14,-70.81,-76.69,249.12,-1.62,0.06,-1.56,-0.04,-0.04,-0.04,142.94,-44.25,16.25,0.13,-0.44,0.37,2,8
1772725236.499373,4127406,0.07,0.02,-0.12,-70.75,-76.75,249.12,0.69,2.00,-0.37,-0.03,0.00,-0.04,142.94,-44.25,16.25,0.37,-0.06,0.31,1,7
1772725236.542014,4127448,0.07,-0.01,-0.11,-71.00,-76.75,249.19,1.62,0.56,-0.88,0.01,-0.07,-0.06,142.94,-44.25,16.25,-0.31,-0.25,-0.50,1,7
1772725236.582824,4127489,-0.07,-0.08,-0.02,-71.12,-76.75,249.25,1.06,0.81,-0.06,-0.02,-0.03,-0.06,142.94,-44.25,16.25,0.00,-0.13,0.13,1,5
1772725236.623550,4127530,-0.04,0.04,-0.04,-71.25,-76.81,249.25,0.19,1.50,-1.00,-0.02,-0.03,-0.04,142.94,-44.25,16.25,-0.44,-0.25,0.00,0,5
1772725236.663766,4127570,-0.01,0.00,-0.08,-71.44,-76.87,249.31,0.62,2.25,-1.12,-0.02,-0.04,-0.06,142.94,-44.25,16.25,0.06,0.19,0.19,1,2
1772725236.704453,4127611,-0.01,0.00,-0.09,-71.81,-76.94,249.37,1.50,1.62,-0.62,0.00,-0.06,-0.05,142.94,-44.25,16.25,0.44,-0.19,0.19,1,2
1772725236.744978,4127652,0.00,-0.08,-0.06,-72.12,-76.94,249.44,1.56,1.06,-0.50,0.00,-0.05,-0.05,142.94,-44.25,16.25,0.19,-0.19,-0.31,0,3
1772725236.784964,4127691,0.00,-0.04,-0.06,-72.37,-76.94,249.44,0.69,1.62,-0.25,-0.01,-0.02,-0.05,142.94,-44.25,16.25,0.37,-0.37,-0.13,0,3
1772725236.824782,4127731,0.14,-0.01,-0.12,-72.50,-77.00,249.44,-0.19,0.56,0.00,-0.03,-0.05,-0.04,142.94,-44.25,16.25,-0.19,-0.37,-0.50,0,3
1772725236.865595,4127772,-0.06,0.00,-0.06,-72.37,-76.94,249.44,-0.81,-1.37,0.25,-0.01,-0.02,-0.07,142.94,-44.25,16.25,-0.31,-0.31,-0.31,0,3
1772725236.906398,4127813,-0.04,0.10,-0.11,-72.12,-76.94,249.37,-1.06,-1.37,0.19,-0.06,-0.04,0.00,142.94,-44.25,16.25,0.19,-0.06,-0.31,1,3
1772725236.947547,4127854,-0.05,0.09,-0.08,-72.12,-76.94,249.37,0.44,0.19,-0.25,0.00,-0.03,-0.02,142.94,-44.25,16.25,-0.13,0.19,-0.19,1,7
1772725236.991385,4127898,-0.07,0.11,-0.07,-72.19,-76.94,249.44,0.31,0.13,-0.37,-0.02,-0.04,-0.07,142.94,-44.25,16.25,0.06,0.19,-0.13,1,7
1772725237.033659,4127940,-0.29,0.04,-0.01,-72.37,-76.94,249.44,1.37,3.00,-1.31,-0.02,-0.05,-0.05,142.94,-44.25,16.25,-0.19,-0.19,-0.31,1,8
1772725237.074639,4127981,0.52,-0.24,-0.10,-73.31,-77.12,249.56,2.06,6.62,-1.62,0.01,-0.04,-0.02,142.94,-44.25,16.25,-0.19,-0.31,-0.19,1,8
1772725237.115248,4128022,0.19,-0.04,-0.06,-73.94,-77.19,249.56,0.31,2.31,-0.13,0.00,-0.06,-0.03,142.94,-44.25,16.25,-0.19,-0.31,-0.31,1,8
1772725237.155686,4128062,0.00,0.04,-0.06,-74.12,-77.19,249.56,-0.56,0.69,1.19,-0.01,-0.07,-0.04,142.94,-44.25,16.25,0.00,-0.37,-0.06,1,8
1772725237.196138,4128103,-0.03,0.05,-0.07,-74.31,-77.12,249.44,-0.81,0.75,2.06,0.00,-0.02,-0.05,142.94,-44.25,16.25,-0.19,0.00,0.37,1,7
1772725237.236981,4128143,-0.01,0.03,-0.06,-74.50,-77.12,249.37,-0.44,1.06,-0.31,-0.02,-0.01,-0.05,142.94,-44.25,16.25,-0.06,-0.13,0.25,1,9
1772725237.276238,4128183,0.03,0.02,-0.06,-74.75,-77.12,249.37,0.19,1.56,-0.25,-0.02,-0.03,-0.07,142.94,-44.25,16.25,0.06,0.00,0.50,1,9
1772725237.317034,4128224,0.00,0.00,-0.07,-75.00,-77.12,249.37,0.19,1.31,-0.44,-0.02,-0.03,-0.06,142.94,-44.25,16.25,-0.56,-0.25,0.50,1,11
1772725237.358017,4128264,0.06,-0.05,-0.08,-75.12,-77.12,249.37,0.19,0.56,-0.94,-0.04,-0.01,-0.01,142.94,-44.25,16.25,-0.25,-0.25,0.19,1,8
1772725237.399820,4128306,0.01,-0.04,-0.08,-75.12,-77.19,249.37,-0.25,-0.25,-0.13,-0.01,-0.01,-0.03,142.94,-44.25,16.25,0.31,0.19,0.25,1,8
1772725237.443592,4128350,0.03,-0.05,-0.07,-75.12,-77.19,249.37,0.31,-0.37,0.06,-0.05,-0.03,-0.03,142.94,-44.25,16.25,0.19,-0.13,-0.19,2,8
1772725237.485626,4128392,0.01,-0.09,-0.06,-75.12,-77.12,249.37,-0.06,-0.56,0.81,-0.03,-0.04,-0.06,142.94,-44.25,16.25,0.19,-0.25,-0.19,3,9
1772725237.526454,4128433,0.00,-0.03,-0.05,-75.12,-77.12,249.31,-1.25,-0.06,1.37,-0.02,-0.04,-0.04,142.94,-44.25,16.25,0.25,0.00,-0.19,2,9
1772725237.566583,4128473,0.03,-0.02,-0.05,-75.12,-77.06,249.19,-1.31,0.19,1.37,0.01,0.00,-0.04,142.94,-44.25,16.25,0.13,-0.13,-0.50,2,9
1772725237.607721,4128514,0.04,0.00,-0.07,-75.12,-77.00,249.12,-1.12,-0.62,1.12,-0.01,-0.01,-0.06,142.94,-44.25,16.25,0.37,-0.19,-0.37,2,10
1772725237.648125,4128555,0.03,0.05,-0.07,-75.00,-76.94,249.00,-0.94,-1.12,1.37,-0.05,-0.02,-0.05,142.94,-44.25,16.31,0.62,-0.37,-0.25,2,7
1772725237.687964,4128594,0.53,0.00,-0.13,-74.75,-76.87,249.00,-0.37,-2.37,0.31,-0.01,-0.07,-0.03,142.94,-44.25,16.31,-0.25,-0.25,-0.44,2,7
1772725237.727972,4128634,-0.44,0.03,0.00,-73.25,-76.81,249.00,-3.25,-12.38,0.37,-0.01,-0.05,-0.04,142.94,-44.25,16.31,-0.13,-0.50,0.13,2,5
1772725237.769029,4128675,-0.13,0.10,-0.02,-72.19,-76.75,248.94,-2.44,-3.62,-0.31,-0.02,-0.05,0.00,142.94,-44.25,16.31,-0.06,-0.25,0.00,2,4
1772725237.810095,4128716,-0.03,-0.02,-0.05,-71.81,-76.69,248.94,-1.06,-1.00,0.31,-0.05,-0.05,-0.03,142.94,-44.25,16.31,-0.13,-0.19,0.00,2,7
1772725237.851431,4128758,0.08,0.06,-0.07,-71.75,-76.69,248.87,-0.62,-0.06,0.50,0.00,-0.05,-0.02,142.94,-44.25,16.31,0.19,0.13,0.13,2,6
1772725237.895180,4128802,-0.09,0.13,-0.06,-71.75,-76.69,248.81,-0.56,0.37,0.13,-0.03,-0.07,-0.04,142.94,-44.25,16.31,-0.37,0.44,0.31,1,5
1772725237.936919,4128844,0.03,0.04,-0.07,-71.81,-76.69,248.87,0.31,0.94,-0.56,-0.05,-0.06,-0.02,142.94,-44.25,16.31,0.06,0.25,0.25,1,6
1772725237.977831,4128884,0.02,0.05,-0.11,-72.00,-76.75,248.87,1.06,0.88,-0.88,-0.04,-0.05,-0.01,142.94,-44.25,16.25,-0.75,0.06,0.37,1,6
1772725238.018352,4128925,0.03,0.00,-0.11,-72.00,-76.75,248.94,0.81,0.19,-0.94,0.00,-0.04,-0.02,142.94,-44.25,16.25,-0.69,0.37,0.75,2,6
1772725238.058817,4128966,0.04,0.03,-0.12,-72.00,-76.81,249.06,1.12,0.37,-1.37,0.00,-0.02,-0.01,143.00,-44.31,16.19,-0.37,0.06,0.75,2,6
1772725238.099466,4129006,-0.02,0.07,-0.08,-71.94,-76.87,249.19,2.19,0.06,-1.69,-0.05,-0.06,-0.03,143.00,-44.31,16.19,-0.56,0.06,0.50,2,6
1772725238.139249,4129046,0.01,-0.11,-0.10,-72.00,-76.94,249.31,2.31,0.44,-0.56,-0.07,-0.05,-0.02,143.00,-44.31,16.19,0.25,0.56,0.62,2,8
1772725238.179401,4129086,-0.02,-0.06,-0.09,-72.06,-76.94,249.31,0.50,0.44,-0.06,0.00,-0.06,-0.02,143.06,-44.31,16.19,-0.13,0.44,0.50,2,8
1772725238.219874,4129126,0.12,-0.07,-0.11,-72.06,-76.94,249.31,-0.37,0.50,-0.62,0.00,-0.05,-0.01,143.06,-44.31,16.19,0.00,1.00,0.37,2,6
1772725238.260646,4129167,0.01,0.04,-0.13,-72.06,-76.94,249.31,-0.25,-0.06,-0.13,0.00,-0.08,-0.03,143.06,-44.25,16.19,-0.13,0.75,0.37,2,6
1772725238.301737,4129208,0.00,0.06,-0.07,-72.00,-76.94,249.31,0.31,-0.69,0.06,0.01,-0.05,-0.06,143.06,-44.25,16.25,-0.37,0.50,0.06,3,7
1772725238.345457,4129252,0.02,0.05,-0.11,-71.81,-76.94,249.37,0.56,-1.06,-1.00,0.00,-0.08,-0.03,143.12,-44.25,16.19,-0.69,0.37,0.00,2,4
1772725238.386919,4129294,-0.87,0.27,0.14,-71.62,-76.94,249.44,2.50,-0.25,1.62,-0.07,-0.03,0.00,143.12,-44.25,16.19,-0.31,0.13,0.44,2,5
1772725238.429144,4129336,-0.07,-0.01,-0.06,-72.50,-76.94,249.50,6.44,21.12,-3.75,-0.04,-0.03,-0.01,143.12,-44.25,16.19,-0.37,0.75,0.50,2,7
1772725238.469703,4129376,0.60,-0.10,-0.10,-76.06,-77.31,249.62,0.69,8.94,-0.88,0.00,-0.06,-0.03,143.12,-44.25,16.19,-0.75,0.31,0.25,2,10
1772725238.510259,4129417,0.05,0.00,-0.04,-76.50,-77.31,249.56,-1.25,0.06,0.06,0.00,-0.07,-0.04,143.19,-44.25,16.12,0.13,0.13,0.62,2,11
1772725238.551658,4129458,-0.03,0.04,-0.04,-76.56,-77.31,249.50,0.00,0.00,0.75,-0.01,-0.05,-0.01,143.19,-44.25,16.12,0.50,0.31,0.69,1,9
1772725238.592474,4129499,0.08,-0.07,-0.03,-76.62,-77.31,249.56,0.94,0.44,-0.37,-0.04,-0.06,0.00,143.19,-44.25,16.12,0.00,-0.06,0.00,2,9
1772725238.631952,4129538,0.03,-0.03,-0.04,-76.62,-77.31,249.56,-0.75,-0.19,0.19,-0.02,-0.04,-0.04,143.19,-44.25,16.12,-0.37,-0.13,0.19,2,8
1772725238.673741,4129580,-0.36,0.04,0.00,-76.31,-77.25,249.50,-2.12,-3.31,1.12,-0.03,-0.02,-0.01,143.19,-44.25,16.12,-0.56,-0.06,0.50,1,8
1772725238.716508,4129623,-0.03,0.03,-0.05,-76.31,-77.25,249.44,-0.69,1.12,0.25,-0.01,-0.02,0.00,143.19,-44.25,16.12,-0.25,-0.06,0.31,1,8
1772725238.756791,4129664,0.05,0.01,-0.06,-76.62,-77.31,249.44,0.19,1.37,0.56,-0.05,-0.02,-0.04,143.19,-44.25,16.12,-0.06,0.19,0.37,1,9
1772725238.799807,4129707,0.02,-0.04,-0.06,-76.81,-77.31,249.44,0.31,0.88,0.62,-0.03,-0.04,0.00,143.19,-44.25,16.12,-0.50,0.13,0.31,2,9
1772725238.840993,4129747,0.08,-0.06,-0.09,-76.94,-77.31,249.37,-0.62,0.06,0.62,-0.01,-0.08,-0.05,143.19,-44.25,16.12,0.13,0.25,0.25,2,7
1772725238.881663,4129788,0.05,-0.02,-0.09,-76.25,-77.25,249.31,-3.37,-11.13,1.50,-0.04,-0.05,0.00,143.19,-44.25,16.12,-0.19,0.25,0.00,2,4
1772725238.922579,4129829,-0.19,0.06,-0.09,-74.62,-77.06,249.25,-1.31,-3.12,0.75,-0.05,-0.03,-0.01,143.19,-44.25,16.12,-0.19,0.62,-0.06,1,3
1772725238.963629,4129870,-0.27,0.09,-0.05,-74.37,-77.06,249.19,-1.25,-0.75,0.81,-0.03,-0.02,-0.04,143.19,-44.25,16.12,0.56,0.37,0.44,1,3
1772725239.004725,4129911,-0.33,0.29,-0.05,-74.56,-77.06,249.12,1.62,2.62,0.88,-0.01,-0.05,-0.03,143.19,-44.25,16.12,-0.06,0.25,0.31,1,3
1772725239.043564,4129950,0.52,-0.21,-0.08,-75.87,-77.00,249.12,4.44,8.38,3.19,-0.02,-0.08,0.00,143.19,-44.25,16.12,0.06,0.06,0.37,1,3
1772725239.082923,4129990,0.27,-0.12,-0.03,-76.69,-77.00,249.12,1.50,2.44,0.19,0.00,-0.06,0.00,143.19,-44.25,16.12,-0.19,0.25,0.44,1,4
1772725239.124437,4130031,0.02,-0.05,-0.04,-76.69,-77.00,249.12,-0.31,0.00,-0.94,-0.01,-0.09,-0.01,143.19,-44.25,16.12,-0.13,0.31,0.25,1,3
1772725239.167720,4130074,0.03,0.03,-0.03,-76.62,-77.06,249.12,-1.19,0.56,-0.25,-0.04,-0.09,-0.01,143.25,-44.25,16.12,-0.50,0.50,0.62,1,4
1772725239.208378,4130115,0.18,-0.04,-0.08,-76.62,-77.06,249.06,-1.31,-0.19,-1.25,-0.05,-0.01,-0.01,143.25,-44.25,16.12,-0.56,0.25,0.56,1,4
1772725239.250512,4130157,-0.30,0.10,-0.03,-75.62,-77.06,249.12,-1.31,-6.00,-1.19,-0.04,-0.05,-0.02,143.25,-44.25,16.12,-0.25,0.06,0.50,1,5
1772725239.292272,4130199,-0.07,0.12,-0.08,-74.81,-77.06,249.12,-1.44,-2.00,-1.19,-0.03,-0.01,-0.03,143.25,-44.31,16.06,-0.06,0.50,0.88,1,7
1772725239.332961,4130239,-0.19,0.14,-0.06,-74.50,-77.06,249.19,0.06,-0.94,-0.81,-0.04,-0.03,-0.02,143.31,-44.31,16.06,-0.69,0.37,0.69,1,7
1772725239.373595,4130280,-0.53,0.26,-0.04,-74.62,-77.06,249.25,1.81,1.62,-0.13,-0.02,-0.02,-0.01,143.31,-44.31,16.00,0.00,0.56,0.44,1,6
1772725239.414602,4130321,0.51,-0.23,-0.18,-75.81,-77.12,249.25,4.56,10.31,1.12,-0.03,-0.04,-0.02,143.31,-44.31,16.00,0.31,0.50,0.44,2,7
1772725239.456276,4130363,0.38,-0.21,-0.09,-77.25,-77.19,249.31,1.62,4.00,-0.06,0.01,-0.07,0.00,143.31,-44.31,16.00,-0.13,0.25,0.31,2,7
1772725239.500457,4130407,-0.02,-0.08,-0.02,-77.25,-77.19,249.31,-0.81,-0.94,-0.88,-0.03,-0.04,-0.01,143.31,-44.31,16.00,-0.13,0.19,0.19,2,7
1772725239.542359,4130449,-0.03,0.00,-0.04,-77.06,-77.19,249.31,-1.37,-0.19,-0.56,-0.03,-0.04,-0.02,143.31,-44.31,16.06,-0.13,0.62,-0.25,2,7
1772725239.583373,4130490,0.01,-0.02,-0.08,-77.00,-77.19,249.25,-1.50,0.06,0.06,-0.01,-0.07,-0.03,143.31,-44.25,16.06,-0.56,0.31,-0.13,2,5
1772725239.623776,4130530,-0.03,0.07,-0.08,-77.00,-77.19,249.19,-1.44,-0.19,1.00,0.00,-0.01,-0.05,143.31,-44.25,16.06,0.44,0.37,0.37,2,5
1772725239.664600,4130571,0.00,0.04,-0.07,-76.94,-77.19,249.12,-0.94,-0.25,-0.06,-0.02,-0.09,-0.03,143.31,-44.25,16.06,-0.37,0.06,-0.25,2,5
1772725239.705404,4130612,0.03,-0.04,-0.07,-76.87,-77.19,249.12,-0.75,-0.50,-0.62,0.00,-0.06,0.00,143.31,-44.25,16.06,-0.31,-0.25,0.19,2,3
1772725239.745306,4130652,0.03,0.02,-0.03,-76.62,-77.19,249.06,-0.88,-1.37,0.31,-0.04,-0.03,-0.02,143.31,-44.25,16.06,-0.25,-0.31,0.13,2,3
1772725239.785397,4130692,0.02,0.02,-0.05,-76.44,-77.19,249.06,-0.69,-0.81,0.25,-0.02,-0.08,-0.05,143.31,-44.25,16.06,0.13,0.06,-0.06,1,3
1772725239.825928,4130733,0.08,0.00,-0.06,-76.25,-77.19,249.06,-0.25,-0.75,0.37,0.00,-0.06,-0.03,143.31,-44.25,16.06,0.31,0.06,0.31,1,5
1772725239.867265,4130774,0.05,0.05,-0.10,-76.00,-77.12,249.06,-0.81,-2.50,1.00,0.00,-0.06,-0.04,143.31,-44.31,16.06,-0.37,-0.25,0.44,1,6
1772725239.909201,4130815,0.19,-0.02,-0.16,-75.37,-77.06,249.00,-0.81,-4.69,-0.25,-0.01,-0.05,0.00,143.31,-44.31,16.06,-0.13,-0.25,0.25,1,6
1772725239.947831,4130854,-0.12,0.06,-0.07,-74.25,-77.00,249.06,-1.50,-7.12,0.50,-0.05,-0.03,0.00,143.31,-44.31,16.06,0.44,-0.19,0.37,1,7
1772725239.986694,4130893,-0.11,0.07,-0.07,-73.37,-76.94,249.06,-0.19,-4.00,0.00,-0.05,-0.02,0.00,143.31,-44.31,16.06,-0.25,0.13,0.00,1,7
1772725240.027962,4130935,0.01,0.00,-0.11,-72.94,-76.94,249.06,0.06,-2.25,-0.31,0.00,-0.06,-0.04,143.31,-44.31,16.06,0.25,0.19,0.25,2,7
1772725240.071204,4130978,0.04,0.02,-0.13,-72.56,-76.87,249.06,-0.44,-2.75,0.19,0.00,-0.03,-0.04,143.31,-44.31,16.06,0.62,-0.06,0.44,2,7
1772725240.111626,4131018,-0.03,0.04,-0.10,-72.06,-76.87,249.12,0.00,-3.19,0.19,-0.02,-0.06,-0.03,143.31,-44.31,16.06,0.37,-0.25,-0.13,2,8
1772725240.153081,4131060,-0.01,-0.01,-0.06,-71.56,-76.81,249.12,0.37,-2.31,0.00,-0.02,-0.04,-0.02,143.31,-44.31,16.06,-0.06,-0.50,-0.25,2,8
1772725240.195068,4131102,-0.03,0.00,-0.04,-71.25,-76.81,249.12,-0.50,-1.00,0.50,0.00,-0.04,-0.02,143.31,-44.31,16.06,0.50,0.06,-0.19,2,8
1772725240.235967,4131142,-0.04,0.00,-0.06,-71.25,-76.81,249.12,-0.06,0.00,0.44,0.00,-0.11,0.00,143.31,-44.31,16.06,-0.37,-0.31,-0.50,2,6
1772725240.276735,4131183,-0.03,0.05,-0.07,-71.25,-76.81,249.12,-0.25,0.37,0.56,-0.05,-0.07,-0.04,143.31,-44.31,16.06,0.00,-0.44,0.00,2,4
1772725240.317524,4131224,-0.05,0.08,-0.11,-71.31,-76.75,249.12,-0.25,0.69,-0.19,-0.06,-0.06,0.00,143.31,-44.31,16.06,0.00,-0.69,0.13,2,4
1772725240.358535,4131265,0.02,0.03,-0.10,-71.50,-76.81,249.12,0.62,1.44,0.25,0.03,-0.07,-0.01,143.31,-44.31,16.06,-0.06,-0.69,0.13,1,3
1772725240.399946,4131306,0.10,-0.05,-0.14,-71.69,-76.81,249.12,1.25,0.81,-0.25,0.01,-0.04,-0.06,143.25,-44.31,16.00,-0.56,-1.00,-0.50,1,4
1772725240.439632,4131346,0.01,-0.04,-0.14,-71.75,-76.81,249.12,-0.56,0.00,0.62,-0.10,-0.10,0.01,143.25,-44.38,16.00,0.75,-0.50,0.81,1,3
1772725240.483533,4131390,-0.02,0.11,-0.13,-71.87,-76.75,249.06,-0.25,1.12,2.31,-0.07,-0.04,0.06,143.25,-44.38,16.06,1.81,0.75,1.44,1,3
1772725240.525868,4131432,0.04,0.14,-0.11,-72.25,-76.69,248.94,1.44,1.81,0.13,0.05,-0.08,-0.03,143.25,-44.38,16.12,-0.25,-0.06,-0.19,1,3
1772725240.564897,4131471,0.04,-0.10,-0.07,-72.56,-76.75,249.06,0.19,1.00,-1.44,0.02,-0.08,-0.01,143.25,-44.38,16.06,-1.56,-1.62,-1.75,1,3
1772725240.606976,4131514,-0.26,-0.05,0.01,-72.69,-76.81,249.06,-1.37,3.06,0.50,-0.06,-0.10,0.01,143.19,-44.38,16.00,0.19,-1.06,-0.50,1,2
1772725240.647532,4131554,-0.20,0.07,0.00,-73.87,-76.75,248.81,-1.62,8.94,3.81,-0.04,-0.12,0.06,143.12,-44.44,16.00,0.50,0.56,0.81,1,3
1772725240.687962,4131595,0.21,0.00,-0.10,-75.69,-76.75,248.50,-1.75,10.44,3.31,-0.05,-0.10,0.01,143.19,-44.44,16.00,-0.81,1.12,1.06,1,4
1772725240.728546,4131635,0.19,0.11,-0.20,-76.87,-76.75,248.31,-3.69,6.50,0.81,0.04,-0.04,-0.02,143.31,-44.44,15.94,-0.94,0.56,1.25,2,4
1772725240.768980,4131676,0.27,0.07,-0.25,-77.56,-76.81,248.12,-4.25,3.06,-2.00,0.07,-0.12,-0.03,143.37,-44.44,15.81,-2.06,-0.06,0.25,2,3
1772725240.809366,4131716,0.22,0.05,-0.17,-77.50,-76.87,248.06,-2.87,-2.19,-2.12,0.00,-0.13,0.00,143.44,-44.44,15.75,0.13,-0.88,-0.50,2,3
1772725240.849076,4131756,-0.01,0.03,-0.08,-76.81,-76.87,248.06,0.06,-4.87,0.37,-0.15,-0.07,0.04,143.37,-44.44,15.75,1.56,0.13,0.75,2,3
1772725240.889391,4131796,-0.14,0.07,-0.03,-76.31,-76.75,248.06,1.44,-3.06,2.25,-0.08,-0.04,0.11,143.37,-44.50,15.81,0.75,0.31,0.88,2,3
1772725240.930057,4131837,-0.07,0.08,-0.07,-76.25,-76.69,248.06,0.75,-0.06,0.50,-0.09,-0.03,0.00,143.37,-44.50,15.81,-0.69,0.75,0.25,2,3
1772725240.970936,4131877,0.07,0.04,-0.12,-76.25,-76.75,248.12,-0.50,0.00,-2.50,0.00,-0.09,-0.04,143.44,-44.50,15.69,-1.37,0.44,0.06,2,5
1772725241.011742,4131919,0.10,0.05,-0.08,-76.06,-76.81,248.19,-0.37,-2.06,-1.87,0.03,-0.11,0.01,143.44,-44.50,15.69,0.00,0.44,0.94,2,5
1772725241.050553,4131957,0.03,0.06,-0.06,-75.62,-76.81,248.31,1.87,-3.06,-0.88,0.02,-0.09,0.00,143.50,-44.50,15.63,0.19,0.37,0.62,2,6
1772725241.090394,4131997,0.01,-0.01,-0.04,-75.31,-76.87,248.44,2.62,-2.37,-1.19,0.06,-0.10,-0.09,143.50,-44.50,15.63,0.62,0.50,0.81,2,4
1772725241.130801,4132037,0.04,0.00,-0.06,-74.87,-76.87,248.62,1.75,-3.12,-1.44,-0.01,-0.11,-0.13,143.44,-44.50,15.75,3.44,-0.06,1.12,1,5
1772725241.171562,4132078,0.00,0.01,-0.09,-74.25,-76.87,248.75,2.25,-4.87,-1.69,0.05,-0.10,0.00,143.31,-44.56,15.94,2.37,-0.19,0.06,1,6
1772725241.212585,4132119,0.04,-0.15,-0.11,-73.56,-76.94,249.00,3.12,-4.31,-1.19,-0.01,-0.13,0.12,143.31,-44.56,15.94,-1.06,0.31,0.56,1,6
