host_time_s,t_ms,ax1,ay1,az1,roll1,pitch1,yaw1,gx1,gy1,gz1,ax2,ay2,az2,roll2,pitch2,yaw2,gx2,gy2,gz2,emg1,emg2
1772655374.450258,1035535,-0.53,-0.16,0.37,-40.00,-79.37,81.12,5.87,11.75,-1.69,-0.31,-0.18,-0.06,104.25,-79.37,357.12,-3.50,3.69,0.94,5,2
1772655374.451106,1035576,-0.66,-0.47,0.47,-41.38,-79.87,81.25,-7.19,19.25,-5.19,-0.16,-0.08,0.19,104.44,-79.31,356.94,-4.12,-2.56,-2.31,5,2
1772655374.451931,1035617,-0.05,-0.41,0.28,-43.38,-80.69,81.00,-16.31,26.12,-7.00,0.06,-0.08,0.29,103.87,-79.25,356.87,-3.44,-0.06,-0.81,3,2
1772655374.452729,1035657,0.50,0.00,-0.03,-46.06,-81.62,80.62,-17.00,26.06,-7.50,0.26,-0.14,0.02,104.31,-79.25,356.75,-2.37,3.69,1.50,3,2
1772655374.453561,1035697,0.96,0.14,-0.29,-49.19,-82.44,80.25,-12.31,17.87,-3.06,0.29,-0.03,-0.17,105.44,-79.31,356.62,-1.50,5.31,3.50,3,2
1772655374.454363,1035736,0.94,0.17,-0.43,-51.44,-82.75,79.81,-9.06,6.06,1.06,-0.09,-0.10,-0.18,106.56,-79.37,356.50,-3.06,5.12,5.12,3,2
1772655374.455177,1035777,0.31,0.24,-0.27,-50.50,-82.56,79.50,-4.06,-13.81,2.19,-0.38,-0.03,-0.16,107.56,-79.50,356.12,-3.94,-1.69,1.69,3,2
1772655374.455997,1035818,-0.14,0.23,-0.02,-46.88,-82.06,79.44,0.44,-18.87,-1.06,-0.13,0.18,0.19,106.69,-79.50,356.06,-1.56,-4.94,-3.56,2,2
1772655374.456795,1035858,0.01,-0.06,0.24,-43.44,-81.69,79.62,2.25,-12.56,-1.12,0.21,0.01,0.29,105.81,-79.44,356.12,1.69,-1.94,-1.69,2,6
1772655374.457552,1035897,0.34,0.00,0.10,-41.69,-81.37,79.75,2.62,-7.19,1.69,0.26,-0.04,0.04,106.06,-79.37,356.31,5.25,4.06,0.69,2,7
1772655374.458337,1035937,0.64,0.12,-0.08,-40.81,-81.06,79.81,1.81,-10.00,2.06,0.09,-0.14,-0.28,106.81,-79.44,356.50,5.69,6.94,3.56,1,7
1772655374.459179,1035978,0.10,0.09,0.10,-38.56,-80.56,79.81,0.37,-22.19,2.00,-0.22,-0.29,-0.21,108.44,-79.56,356.50,1.50,3.44,5.50,1,7
1772655374.459957,1036019,-0.40,0.02,0.36,-35.75,-79.75,79.81,-1.37,-25.81,2.44,-0.45,-0.07,-0.10,108.75,-79.69,356.37,-0.37,-1.62,1.00,1,7
1772655374.460639,1036059,-0.54,-0.03,0.52,-32.88,-78.87,79.75,-5.25,-25.81,-2.19,-0.09,-0.34,0.54,108.12,-79.62,356.44,-2.00,-2.44,-2.06,1,7
1772655374.461300,1036098,-0.33,0.04,0.23,-29.75,-78.19,79.81,-5.56,-15.31,-4.81,0.25,-0.40,0.84,108.56,-79.62,356.12,-8.13,3.81,2.69,1,7
1772655374.461958,1036137,-0.35,-0.02,-0.15,-28.19,-78.00,79.81,-6.50,-0.50,-2.06,0.28,-0.26,0.11,110.25,-79.69,355.81,-7.81,7.06,6.87,3,6
1772655374.462615,1036179,0.50,0.23,-0.31,-28.25,-78.19,79.50,-11.88,2.50,-1.50,-0.06,0.04,-0.18,112.56,-80.12,354.87,-7.44,2.25,11.63,3,7
1772655374.463264,1036219,0.65,0.34,0.07,-27.12,-78.19,79.19,-12.94,-8.06,-5.25,0.00,0.42,-0.54,113.00,-80.37,354.44,-1.87,-7.56,5.25,4,7
1772655374.463929,1036260,0.06,0.21,0.90,-24.75,-77.94,79.12,-6.81,-14.25,-8.31,0.08,0.36,-0.31,112.19,-80.50,354.31,0.31,-6.00,-0.19,4,3
1772655374.464609,1036299,-0.63,-0.19,1.21,-22.25,-77.50,79.37,-1.62,-10.06,-6.31,0.09,-0.21,-0.28,111.00,-80.50,354.50,2.56,-6.44,-3.44,4,3
1772655374.465269,1036338,-0.32,-0.33,0.93,-21.00,-77.31,79.50,-2.94,-3.87,-3.25,0.18,-0.22,0.00,108.62,-80.50,354.62,2.31,-9.88,-5.00,5,3
1772655374.465920,1036380,-0.14,-0.13,0.57,-20.81,-77.37,79.37,-6.81,5.62,2.75,0.14,-0.22,0.45,106.37,-80.44,354.87,3.00,-5.81,-2.75,6,3
1772655374.466575,1036420,0.16,-0.05,-0.01,-21.62,-77.62,78.94,-13.38,7.12,3.12,-0.08,-0.11,-0.05,106.25,-80.37,355.00,1.62,4.00,-0.13,6,4
1772655374.467229,1036461,-0.15,0.03,0.07,-22.19,-77.94,78.37,-11.00,19.62,1.62,-0.15,0.14,0.15,106.50,-80.37,355.06,2.50,-2.00,-0.06,6,4
1772655374.467890,1036500,-0.03,-0.04,0.14,-23.19,-78.62,78.00,-8.88,19.00,-1.31,-0.06,-0.06,0.30,105.12,-80.56,354.94,-1.56,-6.50,3.75,6,4
1772655374.468550,1036539,-0.10,-0.20,0.12,-23.44,-79.31,77.75,-11.06,16.37,-3.94,-0.11,0.12,0.25,104.37,-80.69,354.75,-2.31,-1.12,2.06,5,6
1772655374.469218,1036580,-0.17,-0.51,0.16,-24.00,-80.06,77.44,-11.88,22.31,0.56,0.18,0.15,0.32,104.56,-80.81,354.69,3.37,3.87,0.88,7,8
1772655374.469880,1036621,-0.96,-0.81,0.71,-26.87,-80.87,76.81,-13.44,39.00,9.69,0.15,0.01,0.31,105.37,-80.87,354.62,-1.87,5.37,5.62,6,8
1772655374.470504,1036661,-1.30,-1.17,1.25,-36.56,-82.19,75.56,-18.06,65.56,29.00,0.02,0.37,0.48,106.44,-80.87,355.06,22.00,14.25,-5.56,6,7
1772655374.471491,1036700,0.41,-0.33,0.33,-57.75,-83.00,73.19,-28.81,66.31,39.88,-0.01,0.14,-0.23,109.81,-80.56,355.94,9.94,15.25,0.06,6,8
1772655374.472121,1036740,1.19,0.56,-0.29,-78.62,-82.56,70.56,-23.00,55.63,31.87,-0.22,0.47,0.05,110.81,-80.06,357.00,19.00,18.94,-15.50,5,8
1772655374.472724,1036781,0.29,0.02,-0.20,-90.81,-81.81,68.94,-5.19,35.56,18.44,-0.01,0.38,0.00,110.44,-79.50,358.06,8.31,-1.81,-13.75,5,7
1772655374.473340,1036822,-0.17,-0.56,0.16,-98.87,-80.94,67.87,0.25,31.25,23.94,-0.02,-0.21,0.31,108.12,-79.06,359.06,11.63,-10.25,-12.81,6,7
1772655374.473930,1036862,0.17,-0.59,0.00,-104.87,-79.69,66.62,-1.56,34.88,28.50,0.01,0.02,0.11,105.31,-78.69,359.94,12.69,-5.69,-13.75,6,7
1772655374.474516,1036901,0.83,-0.17,-0.41,-109.75,-78.25,65.12,-5.81,35.75,24.00,0.09,-0.06,-0.24,103.06,-78.25,0.75,5.81,-7.56,-11.00,7,7
1772655374.475094,1036941,1.08,-0.12,-0.71,-113.19,-77.12,63.81,-7.06,25.44,17.62,0.18,-0.23,-0.06,101.94,-77.87,1.19,-1.62,-2.62,-11.63,8,6
1772655374.475656,1036982,1.03,-0.05,-0.78,-113.94,-76.37,62.69,-13.44,3.44,11.94,-0.11,0.28,0.00,102.12,-77.31,1.69,0.06,6.19,-16.31,6,4
1772655374.476208,1037022,0.79,0.13,-0.70,-112.37,-76.06,61.75,-12.13,-11.19,5.12,-0.02,0.22,0.03,102.62,-76.62,2.44,0.69,7.31,-15.69,6,4
1772655374.476764,1037063,0.55,0.06,-0.48,-110.31,-76.06,61.31,-6.81,-15.63,-1.69,0.05,-0.07,-0.26,103.62,-76.12,2.81,-5.75,7.87,-8.88,6,4
1772655374.477322,1037102,0.79,0.07,-0.20,-108.06,-76.25,61.31,-3.62,-22.44,-2.69,0.04,0.00,-0.18,104.94,-75.69,3.06,-2.37,12.81,-12.25,6,3
1772655374.477886,1037141,0.19,0.19,0.35,-103.75,-76.62,61.56,0.19,-32.38,-1.44,0.01,-0.08,-0.19,106.50,-75.06,3.62,-2.44,10.63,-10.44,6,4
1772655374.478441,1037183,-0.50,0.33,0.62,-98.75,-76.87,62.06,8.88,-31.25,0.75,-0.11,-0.32,-0.03,107.25,-74.69,3.87,-4.81,5.19,-6.19,5,4
1772655374.478996,1037223,-0.20,0.49,0.38,-94.44,-76.94,62.69,12.50,-24.19,1.12,-0.25,-0.07,0.05,107.87,-74.37,4.06,0.88,8.69,-7.94,5,3
1772655374.479496,1037264,0.28,0.65,-0.16,-91.12,-77.06,63.44,17.19,-22.37,-4.62,-0.07,-0.40,-0.37,108.31,-74.12,4.44,0.44,0.00,-2.00,5,6
1772655374.479971,1037303,0.69,0.68,-0.04,-87.37,-77.25,64.56,18.87,-30.94,-6.62,-0.32,-0.18,0.29,107.56,-74.19,4.31,0.81,-4.94,-0.50,4,7
1772655374.480444,1037342,-0.51,0.76,0.65,-81.44,-77.37,65.87,19.37,-38.63,-6.12,0.05,-0.10,0.51,106.87,-74.25,4.44,4.75,-2.25,1.12,3,6
1772655374.480920,1037383,0.05,0.37,0.83,-77.25,-77.44,67.19,26.00,-16.69,-9.19,0.52,-0.45,0.07,107.44,-74.31,4.62,6.06,5.62,3.69,3,7
1772655374.481409,1037424,0.56,-0.68,0.20,-74.69,-77.69,68.69,18.19,-21.56,-11.13,0.19,-0.72,-0.05,108.12,-74.37,4.56,-3.00,3.31,3.69,4,7
1772655374.481888,1037464,0.55,-0.71,0.07,-71.31,-77.81,69.69,4.00,-22.25,-7.50,-0.26,-0.35,0.29,108.75,-74.37,4.37,-3.31,4.25,-0.94,4,8
1772655374.482374,1037504,-0.96,-0.23,0.69,-67.69,-77.75,70.00,-5.94,-8.44,-2.50,-0.03,-0.25,0.10,110.56,-74.12,4.44,-3.31,13.63,-0.75,5,8
1772655374.482841,1037543,-0.40,0.07,0.54,-67.06,-77.75,69.81,-7.62,4.37,0.25,-0.14,-0.30,0.10,111.37,-74.06,4.37,-1.87,5.81,1.37,5,7
1772655374.515096,1037584,0.17,-0.05,0.53,-68.12,-77.87,69.44,-9.88,8.25,0.25,0.17,-0.18,-0.46,112.37,-74.00,4.37,-2.75,7.94,1.25,5,7
1772655374.555540,1037625,-0.68,0.00,0.98,-69.00,-78.00,69.06,-13.81,11.06,-2.56,0.07,-0.23,-0.26,113.31,-74.00,4.19,-5.37,2.44,1.50,5,7
1772655374.596107,1037665,-1.12,0.23,1.25,-70.69,-78.37,68.56,-14.44,21.12,-6.19,-0.13,-0.33,-0.04,113.62,-73.94,3.94,-6.31,0.69,-0.37,5,4
1772655374.634991,1037704,-0.62,0.40,1.06,-74.75,-78.94,68.19,-9.94,35.25,-6.87,-0.14,0.04,0.05,113.75,-73.81,3.94,-3.50,1.06,-3.37,4,3
1772655374.674295,1037743,0.16,0.19,0.40,-81.75,-79.50,67.94,-5.44,39.31,-6.31,-0.02,0.04,-0.06,113.87,-73.69,3.94,1.31,4.12,-3.12,4,3
1772655374.715952,1037785,0.83,-0.34,-0.15,-89.25,-79.75,67.69,-3.31,31.00,0.44,0.09,-0.01,-0.17,113.87,-73.56,4.25,4.75,-0.25,-0.75,4,3
1772655374.756265,1037825,1.10,-0.24,-0.27,-94.81,-79.62,67.25,-5.75,18.44,2.19,0.15,0.12,-0.36,113.75,-73.56,4.56,8.94,-0.88,1.25,3,4
1772655374.796768,1037866,0.52,0.14,-0.08,-97.37,-79.56,67.00,-1.44,5.19,-3.37,-0.08,-0.11,-0.19,113.94,-73.69,4.69,4.56,0.69,4.06,2,3
1772655374.835943,1037905,0.22,-0.03,0.00,-98.00,-79.69,67.12,1.87,-2.06,-3.25,-0.20,-0.23,-0.03,114.06,-73.69,4.75,2.69,1.19,0.88,2,4
1772655374.874821,1037944,0.10,-0.15,0.00,-97.50,-79.75,67.31,2.44,-3.25,0.56,-0.07,-0.12,0.01,114.00,-73.69,4.81,1.19,0.50,0.94,3,8
1772655374.916569,1037986,0.20,-0.22,0.13,-97.00,-79.75,67.37,2.31,-0.44,3.06,0.07,-0.04,0.11,114.00,-73.81,4.81,1.31,0.06,2.56,3,8
1772655374.957595,1038026,0.00,-0.22,0.35,-96.81,-79.69,67.31,0.00,2.19,1.94,0.15,0.00,0.05,114.37,-73.94,4.62,-1.19,1.06,5.00,3,9
1772655374.997572,1038067,-0.50,0.17,0.80,-97.62,-79.62,67.25,-0.88,9.25,-2.19,0.04,-0.09,-0.04,114.87,-74.12,4.31,-3.69,0.37,5.31,3,9
1772655375.036691,1038106,-0.83,0.05,0.89,-100.56,-79.69,67.31,1.56,16.81,-5.69,-0.34,-0.02,0.13,115.25,-74.25,3.87,-7.44,-0.94,3.75,3,9
1772655375.076061,1038145,-0.32,-0.18,0.41,-104.94,-79.81,67.50,0.00,20.06,-7.87,-0.29,-0.16,0.03,115.44,-74.37,3.50,-8.56,-2.81,2.62,4,9
1772655375.117331,1038186,0.55,-0.37,-0.08,-109.25,-79.87,67.62,-3.87,15.88,-7.06,0.06,-0.01,-0.09,115.25,-74.50,3.06,-3.75,-4.19,0.88,4,9
1772655375.157850,1038227,1.06,-0.25,-0.48,-112.12,-80.00,67.56,-7.12,4.62,-8.00,0.16,0.04,-0.10,115.00,-74.62,2.87,0.13,-1.94,2.06,5,8
1772655375.198252,1038267,0.64,-0.20,-0.25,-112.81,-80.25,67.56,-7.81,-3.12,-7.56,0.07,-0.02,-0.02,114.94,-74.69,2.87,1.75,0.19,1.19,5,8
1772655375.237628,1038307,0.38,-0.12,-0.11,-111.94,-80.56,67.56,-6.75,-8.75,-4.62,-0.08,-0.06,-0.11,115.12,-74.62,3.06,3.81,3.94,-1.44,4,7
1772655375.276932,1038346,-0.02,-0.03,0.20,-109.81,-80.87,67.56,-3.37,-11.69,-4.37,-0.11,-0.12,-0.14,115.31,-74.50,3.31,2.19,1.94,-1.87,3,3
1772655375.318517,1038387,-0.21,-0.22,0.24,-107.06,-81.19,67.75,-1.00,-14.44,-3.44,-0.11,-0.18,-0.03,115.19,-74.44,3.44,1.25,-0.31,-1.81,3,2
1772655375.359009,1038428,-0.61,-0.02,0.38,-104.00,-81.44,67.94,-1.87,-7.00,-1.87,-0.12,-0.20,0.19,114.81,-74.37,3.56,1.25,-2.31,-2.12,2,2
1772655375.399042,1038468,0.22,-0.02,0.10,-103.31,-81.50,67.94,-1.87,0.00,0.25,-0.17,-0.02,0.33,114.31,-74.37,3.62,-0.13,-1.44,-1.19,2,2
1772655375.437892,1038507,0.53,0.10,0.09,-102.75,-81.50,67.81,-0.25,-6.00,1.81,0.10,-0.01,0.02,114.25,-74.37,3.62,-0.25,0.62,0.69,2,2
1772655375.477059,1038547,0.14,0.06,0.29,-100.62,-81.44,67.81,2.19,-8.81,2.75,0.16,0.04,-0.12,114.44,-74.37,3.62,1.56,1.56,1.75,2,2
1772655375.518585,1038588,-0.31,-0.06,0.57,-98.87,-81.44,67.94,4.87,-4.81,2.44,-0.02,-0.13,0.10,114.62,-74.44,3.56,-0.13,1.31,2.25,2,3
1772655375.559327,1038629,-0.38,-0.02,0.51,-97.69,-81.31,68.06,5.50,-2.06,3.62,-0.20,-0.11,0.09,114.87,-74.44,3.56,-0.31,2.06,0.13,3,6
1772655375.599525,1038669,-0.04,-0.11,0.28,-97.12,-81.25,68.12,4.19,2.62,3.25,-0.11,0.00,0.16,114.94,-74.44,3.56,0.25,0.94,-0.19,3,6
1772655375.638658,1038708,0.44,-0.17,-0.06,-97.56,-81.12,68.19,2.31,-0.75,1.00,0.06,-0.02,0.02,115.00,-74.44,3.69,2.06,1.44,0.56,3,6
1772655375.677996,1038747,0.57,-0.10,0.02,-96.87,-81.12,68.25,1.50,-5.31,-0.81,0.17,0.00,-0.19,115.12,-74.44,3.75,2.44,1.62,0.13,3,6
1772655375.719864,1038789,-0.28,0.00,0.33,-95.37,-81.25,68.44,1.94,-3.19,-3.06,-0.07,-0.09,0.06,115.25,-74.37,3.81,-0.94,-0.37,-0.37,4,6
1772655375.760341,1038829,-0.36,-0.32,0.33,-95.37,-81.37,68.69,2.87,2.62,-2.12,-0.22,-0.32,0.13,115.25,-74.31,3.75,-3.94,-0.13,-1.62,4,6
1772655375.800746,1038870,-0.14,-0.55,0.30,-96.25,-81.37,68.69,-3.44,5.06,2.44,-0.11,-0.11,0.01,115.12,-74.19,3.75,-2.87,0.62,-3.31,4,6
1772655375.839648,1038909,0.07,-0.17,0.23,-97.25,-81.25,68.31,-8.50,5.87,3.81,0.01,-0.06,0.05,115.06,-74.12,3.75,-0.13,-0.25,-1.19,5,5
1772655375.878398,1038948,0.44,0.00,0.00,-98.37,-81.06,67.75,-10.38,5.94,3.12,0.10,0.00,-0.10,115.06,-74.12,3.81,2.37,1.44,0.94,5,5
1772655375.919727,1038989,0.35,0.09,0.01,-98.75,-80.94,67.19,-10.94,1.37,2.37,0.04,0.00,-0.11,115.37,-74.12,3.87,1.69,1.81,1.81,5,4
1772655375.960928,1039030,0.21,0.11,0.14,-98.06,-80.87,66.69,-9.75,-3.37,0.44,-0.08,-0.09,-0.18,115.69,-74.19,3.94,1.00,1.87,1.12,2,1
1772655376.001540,1039070,-0.23,0.04,0.35,-96.56,-80.94,66.37,-8.94,-5.12,-2.94,-0.18,-0.11,-0.01,115.87,-74.19,3.87,-1.44,-0.81,0.94,2,1
1772655376.040725,1039110,-0.39,-0.03,0.56,-95.12,-81.06,66.19,-8.75,-4.00,-4.69,-0.05,-0.14,0.18,115.69,-74.19,3.81,-1.50,-2.25,-0.81,2,1
1772655376.079873,1039149,-0.17,-0.17,0.36,-93.94,-81.31,66.06,-8.44,2.25,-3.56,0.01,-0.07,0.17,115.37,-74.19,3.75,-1.69,-1.62,-0.69,3,1
1772655376.120866,1039190,0.27,-0.06,0.00,-94.75,-81.37,65.81,-8.56,6.06,0.81,0.05,-0.06,0.08,115.19,-74.19,3.75,0.06,1.00,-0.13,2,1
1772655376.161370,1039231,0.38,0.07,-0.16,-95.81,-81.25,65.37,-6.62,3.44,2.81,0.00,0.00,-0.02,115.37,-74.19,3.81,1.56,1.81,0.81,1,1
1772655376.202450,1039271,0.20,0.10,0.03,-96.12,-81.12,65.00,-4.44,-0.44,2.06,-0.04,-0.04,-0.07,115.62,-74.19,3.81,0.50,1.62,1.19,1,2
1772655376.241069,1039310,0.00,0.12,0.14,-95.44,-81.06,64.81,-3.56,-3.12,0.44,-0.06,-0.11,-0.09,115.81,-74.19,3.87,-0.06,0.75,0.19,3,6
1772655376.280707,1039350,0.74,-0.09,0.25,-94.56,-81.12,64.75,-0.75,-2.37,-0.75,-0.09,-0.10,0.10,115.81,-74.19,3.81,-1.06,-0.75,0.19,3,6
1772655376.321895,1039391,-0.31,-0.06,0.39,-93.19,-81.19,64.87,0.06,-4.25,-0.44,-0.02,-0.10,0.13,115.81,-74.19,3.81,-0.37,-0.56,0.00,3,6
1772655376.362108,1039432,-0.23,0.00,0.16,-92.56,-81.19,64.81,0.13,1.37,2.06,-0.02,-0.04,0.16,115.62,-74.19,3.81,0.88,-0.06,0.31,3,6
1772655376.402574,1039472,0.38,0.05,-0.03,-93.25,-81.06,64.75,-0.31,2.62,1.75,-0.01,0.06,-0.01,115.69,-74.19,3.87,1.56,1.94,0.69,3,6
1772655376.441544,1039511,0.26,0.06,0.00,-93.37,-81.00,64.69,1.25,-1.69,-0.25,0.01,0.00,-0.05,115.87,-74.19,3.94,1.37,0.81,0.56,4,6
1772655376.481285,1039550,-0.33,0.05,0.31,-92.37,-81.06,64.81,2.50,-6.12,-0.75,-0.06,-0.04,-0.06,115.87,-74.19,4.00,1.75,1.56,-0.94,4,7
1772655376.522739,1039592,-0.29,-0.05,0.46,-91.37,-81.06,65.00,6.19,-3.19,1.50,-0.08,-0.14,0.06,115.87,-74.12,4.06,-0.69,-1.06,-0.88,4,7
1772655376.563293,1039632,-0.17,-0.10,0.36,-90.69,-81.00,65.25,7.87,-1.12,3.62,-0.04,-0.14,0.09,115.69,-74.06,4.12,-0.56,0.00,-1.44,5,7
1772655376.603694,1039673,-0.16,0.00,0.27,-90.44,-80.81,65.37,8.25,2.56,6.06,-0.01,-0.08,0.01,115.56,-74.06,4.19,-0.25,-0.19,-0.37,5,6
1772655376.641941,1039712,0.14,0.00,0.07,-91.44,-80.56,65.44,8.13,4.87,6.44,0.01,0.02,0.02,115.56,-74.06,4.19,1.31,0.25,0.81,3,2
1772655376.681919,1039751,0.43,-0.02,-0.11,-92.69,-80.37,65.50,6.56,3.06,3.94,-0.01,-0.01,-0.14,115.69,-74.06,4.19,0.69,0.56,1.62,3,2
1772655376.723269,1039792,0.29,-0.07,-0.10,-92.69,-80.31,65.62,2.37,-4.50,-1.75,-0.03,-0.06,-0.09,115.87,-74.12,4.19,0.94,1.00,0.69,3,2
1772655376.764198,1039833,-0.01,-0.04,0.09,-91.37,-80.44,65.81,0.37,-6.75,-5.06,-0.07,-0.10,-0.02,115.94,-74.12,4.12,-0.62,-0.62,0.88,3,2
1772655376.804401,1039873,-0.23,-0.11,0.36,-90.00,-80.69,66.06,0.31,-4.19,-4.25,-0.09,-0.10,0.05,115.87,-74.19,4.06,-1.56,-1.50,0.75,2,2
1772655376.843582,1039913,-0.05,-0.12,0.25,-89.06,-80.81,66.25,0.75,-1.81,-2.37,-0.02,-0.05,0.06,115.81,-74.19,3.94,-1.19,-0.69,0.62,2,1
1772655376.882673,1039952,0.01,-0.12,0.18,-88.56,-80.87,66.37,1.50,-0.81,-0.37,-0.01,0.00,-0.01,115.81,-74.19,3.94,-0.19,-0.25,0.13,1,1
1772655376.923993,1039993,0.05,-0.13,0.08,-88.50,-80.87,66.44,0.56,1.00,0.69,-0.05,-0.03,-0.02,115.81,-74.19,3.94,0.00,0.00,-0.31,2,2
1772655376.964643,1040034,0.06,-0.10,0.08,-88.69,-80.87,66.37,-0.75,1.44,0.75,-0.05,-0.05,0.00,115.81,-74.19,4.00,0.25,0.00,-0.81,4,3
1772655377.005116,1040074,-0.06,-0.01,0.24,-88.94,-80.87,66.37,-0.06,2.00,0.81,-0.04,-0.06,0.05,115.75,-74.19,4.00,-0.06,-0.69,-0.69,4,3
1772655377.044287,1040113,-0.07,-0.10,0.39,-89.06,-80.81,66.31,0.81,2.81,2.75,-0.02,-0.09,0.13,115.62,-74.19,4.00,-0.31,-0.56,-0.50,4,3
1772655377.083579,1040153,-0.11,-0.14,0.42,-89.12,-80.69,66.19,0.37,2.87,4.94,-0.05,-0.11,0.07,115.56,-74.19,4.00,0.06,-0.19,-0.25,5,3
1772655377.124861,1040194,-0.24,-0.10,0.30,-89.50,-80.50,65.94,-1.12,7.31,8.44,-0.06,-0.06,-0.08,115.56,-74.19,4.00,0.19,0.50,1.00,5,3
1772655377.165454,1040235,0.03,-0.04,-0.02,-91.25,-80.19,65.50,-2.12,10.69,7.56,-0.02,-0.06,-0.13,115.56,-74.25,3.94,-0.69,-1.56,1.56,5,3
1772655377.205952,1040275,0.41,-0.02,-0.20,-93.37,-79.94,65.12,-3.44,8.56,4.37,-0.01,0.00,-0.11,115.37,-74.31,3.87,-0.50,-2.00,0.56,5,3
1772655377.244876,1040314,0.34,0.02,-0.14,-94.44,-79.81,64.81,-3.75,3.50,1.69,0.01,0.00,-0.07,115.12,-74.31,3.81,0.00,-1.94,-0.31,6,3
1772655377.284331,1040354,0.11,0.03,-0.04,-94.62,-79.75,64.62,-3.00,0.44,0.88,-0.01,-0.03,-0.01,115.00,-74.37,3.81,0.00,-0.81,-0.75,6,3
1772655377.325473,1040395,0.09,0.03,-0.01,-94.56,-79.69,64.50,-0.31,0.62,1.50,-0.03,-0.09,0.02,114.81,-74.37,3.87,0.62,-0.56,-0.69,5,1
1772655377.366122,1040435,0.12,-0.04,-0.07,-94.56,-79.62,64.44,0.13,-0.56,2.81,-0.04,-0.08,0.00,114.75,-74.31,3.87,0.69,0.06,-0.56,3,1
1772655377.406566,1040476,0.07,-0.02,-0.04,-94.31,-79.50,64.31,-0.44,-2.25,2.44,-0.04,-0.10,0.05,114.69,-74.31,3.94,0.75,-0.06,-0.81,3,1
1772655377.445626,1040515,0.02,0.01,0.03,-93.81,-79.44,64.25,-0.81,-2.31,1.69,-0.05,-0.05,0.06,114.62,-74.31,4.00,0.88,-0.25,-0.81,3,1
1772655377.485944,1040555,-0.01,0.06,0.09,-93.31,-79.37,64.19,-1.00,-1.69,0.69,-0.03,-0.05,0.08,114.56,-74.31,4.00,0.37,-0.44,-0.44,3,1
1772655377.526545,1040596,0.00,-0.01,0.06,-93.19,-79.37,64.19,-0.31,-0.31,0.44,-0.04,-0.08,0.10,114.56,-74.31,4.00,0.69,0.00,-0.50,2,1
1772655377.567197,1040636,0.14,-0.01,-0.08,-93.19,-79.37,64.19,-0.25,-0.06,0.62,-0.04,-0.09,0.09,114.56,-74.25,4.06,1.56,0.88,-0.50,2,0
1772655377.607401,1040676,0.00,-0.06,-0.06,-93.06,-79.37,64.12,-0.31,-1.37,0.75,-0.02,-0.11,0.06,114.56,-74.25,4.12,1.12,0.50,-0.25,1,0
1772655377.646409,1040716,0.02,-0.04,0.00,-92.81,-79.31,64.12,-0.75,-1.25,1.62,-0.04,-0.12,0.05,114.56,-74.25,4.19,1.06,0.37,-0.31,3,2
1772655377.686061,1040755,0.03,0.03,0.03,-92.56,-79.25,64.00,-1.06,-1.00,1.56,-0.06,-0.10,0.04,114.56,-74.25,4.19,0.06,0.31,-0.13,4,3
1772655377.728328,1040796,0.12,0.09,-0.03,-92.31,-79.25,63.94,-1.69,-1.44,-0.37,-0.03,-0.06,0.04,114.56,-74.25,4.19,0.06,0.13,-0.13,4,3
1772655377.767759,1040837,0.17,0.12,-0.06,-91.94,-79.25,63.94,-1.06,-3.06,-2.25,-0.06,-0.08,0.03,114.56,-74.25,4.19,-0.13,0.81,0.00,3,3
1772655377.808122,1040877,0.45,0.38,-0.12,-91.19,-79.31,64.00,1.87,-7.06,-4.06,-0.02,0.01,-0.02,114.69,-74.25,4.19,-0.25,0.81,-0.62,4,4
1772655377.847092,1040916,0.41,0.60,-0.26,-89.44,-79.50,64.37,6.12,-11.56,-6.37,-0.08,0.07,0.04,114.81,-74.19,4.19,-1.87,1.06,-1.06,4,4
1772655377.887055,1040956,-0.17,0.13,0.20,-86.87,-79.81,65.25,12.75,-13.25,-11.13,-0.02,-0.27,0.10,114.87,-74.19,4.12,-2.56,-0.88,-0.56,4,4
1772655377.928093,1040997,-0.40,-0.57,0.43,-85.00,-80.25,66.25,11.50,-6.12,-7.81,-0.02,-0.28,0.12,114.94,-74.12,4.06,-1.62,1.12,0.06,4,5
1772655377.968524,1041038,-0.29,-0.59,0.36,-84.37,-80.44,66.81,3.37,-0.44,-2.75,-0.02,-0.25,-0.04,115.19,-74.06,4.12,0.06,2.75,0.75,5,5
1772655378.008863,1041078,-0.23,-0.32,0.23,-83.94,-80.69,67.12,-3.62,4.44,-0.56,-0.04,-0.10,-0.08,115.44,-74.06,4.12,1.00,1.94,1.19,5,5
1772655378.048047,1041117,0.08,-0.06,0.10,-84.75,-80.75,66.94,-7.56,6.31,-0.44,-0.03,-0.07,-0.06,115.62,-74.06,4.19,1.62,0.62,0.88,4,3
1772655378.087399,1041157,0.07,0.13,0.10,-85.81,-80.81,66.62,-8.88,5.37,-1.25,-0.03,-0.01,-0.03,115.62,-74.06,4.19,1.31,0.44,0.88,3,2
1772655378.128392,1041198,0.04,0.11,0.16,-86.56,-80.94,66.37,-6.25,4.94,-3.94,0.00,-0.07,-0.02,115.62,-74.06,4.25,0.19,0.00,0.06,3,2
1772655378.169549,1041238,-0.06,-0.01,0.13,-87.50,-81.06,66.25,-5.06,7.00,-2.87,-0.03,-0.09,-0.04,115.62,-74.06,4.25,0.06,-0.13,-0.56,3,2
1772655378.209640,1041279,-0.08,-0.10,0.10,-89.00,-81.19,66.12,-5.25,9.31,-1.37,-0.07,-0.12,-0.01,115.62,-74.06,4.25,-1.06,0.00,0.25,3,1
1772655378.248868,1041318,-0.09,-0.07,0.07,-91.06,-81.19,65.87,-6.44,9.56,-1.06,-0.10,-0.25,0.12,115.81,-74.12,4.12,-4.00,0.62,2.31,3,1
1772655378.288210,1041357,-0.03,0.00,0.00,-92.81,-81.31,65.62,-8.31,7.37,-1.94,-0.20,-0.03,-0.36,116.12,-74.19,3.81,-6.31,-1.06,3.06,3,1
1772655378.329624,1041399,0.16,0.15,-0.06,-93.94,-81.37,65.31,-11.63,3.37,-5.00,-0.12,-0.23,-0.13,116.44,-74.37,3.19,-12.19,-2.50,5.81,6,1
1772655378.370098,1041439,0.37,0.55,-0.06,-94.00,-81.56,65.00,-10.38,-2.50,-6.12,-0.03,0.06,-0.33,116.94,-74.56,2.62,-3.25,-0.75,2.44,5,3
1772655378.410333,1041479,0.85,0.77,-0.26,-92.06,-81.81,65.00,-1.12,-14.94,-7.00,0.11,-0.09,-0.27,117.00,-74.69,2.37,-3.00,-5.75,4.69,5,2
1772655378.449648,1041519,1.44,0.84,-0.74,-86.69,-82.06,65.56,10.56,-25.12,-5.44,-0.04,-0.09,-0.30,116.50,-74.81,2.31,6.25,-5.81,-0.69,4,3
1772655378.488886,1041558,1.48,0.51,-0.89,-77.06,-81.94,66.62,26.25,-45.38,-0.75,0.19,-0.52,-0.01,115.56,-74.87,2.62,10.13,-9.25,0.81,4,3
1772655378.529989,1041599,0.76,-0.32,-0.62,-64.37,-81.06,67.94,31.37,-72.19,11.06,0.06,-0.63,0.37,113.25,-75.19,2.81,7.94,-14.19,1.94,4,4
1772655378.570471,1041640,-0.93,-0.31,0.29,-54.50,-79.19,68.56,14.06,-53.31,17.75,-0.05,-0.24,0.49,111.06,-75.44,2.94,5.00,-13.75,0.37,5,5
1772655378.610766,1041680,-0.95,0.35,0.84,-49.81,-77.81,68.75,9.81,-29.50,1.87,-0.05,0.02,0.81,109.31,-75.56,3.00,3.31,-9.88,0.06,5,5
1772655378.650203,1041719,-0.51,0.23,0.49,-46.75,-77.31,69.31,9.31,-16.25,-7.69,-0.01,-0.21,0.41,108.87,-75.69,2.81,-3.81,-2.06,0.88,5,4
1772655378.689746,1041759,-0.17,0.03,0.26,-44.63,-77.31,69.94,3.37,-8.25,-8.69,-0.09,-0.01,0.17,108.87,-75.69,2.62,-3.81,-0.13,0.06,6,5
1772655378.730859,1041800,0.14,-0.03,0.01,-43.25,-77.31,70.25,1.56,-6.37,-3.00,-0.09,-0.05,0.22,109.19,-75.87,2.25,-3.87,0.62,6.31,3,4
1772655378.771302,1041841,0.32,-0.11,-0.03,-42.06,-77.06,70.37,-2.06,-12.56,0.88,0.08,0.13,-0.22,110.00,-76.06,2.00,1.25,2.19,7.37,3,3
1772655378.811653,1041881,-0.01,0.04,0.09,-40.69,-76.62,70.25,-3.00,-11.88,0.94,-0.03,0.13,0.09,110.25,-76.37,1.75,1.94,-1.56,8.13,3,3
1772655378.850822,1041920,-0.25,0.14,0.06,-39.50,-76.37,70.25,-2.56,-6.19,-2.62,-0.12,0.12,0.17,110.00,-76.69,1.50,0.94,-3.94,6.00,3,3
1772655378.890269,1041960,-0.05,0.04,0.00,-38.50,-76.31,70.31,-3.31,-2.56,-5.06,-0.17,0.25,0.22,109.69,-76.87,1.31,3.00,-2.56,0.81,3,3
1772655378.931321,1042001,0.00,-0.05,0.07,-37.44,-76.44,70.44,-3.37,0.19,-7.69,0.02,-0.11,0.25,108.87,-77.00,1.44,0.25,-1.94,0.06,3,2
1772655378.972214,1042041,0.19,-0.24,0.00,-36.06,-76.56,70.62,-5.31,-3.12,-7.31,0.08,-0.29,0.17,108.87,-77.06,1.19,-3.81,-1.00,2.75,3,2
1772655379.012566,1042082,0.00,-0.08,0.09,-34.63,-76.62,70.69,-8.06,-2.50,-5.50,0.08,-0.10,-0.16,109.19,-77.19,1.00,-2.06,-0.56,3.87,3,6
1772655379.051301,1042121,0.32,0.07,0.10,-33.31,-76.62,70.62,-8.81,-4.12,-4.75,0.00,-0.03,0.15,109.37,-77.44,0.62,-3.12,0.56,5.87,4,6
1772655379.090937,1042160,0.18,0.48,0.14,-31.81,-76.50,70.56,-7.87,-7.81,-4.81,0.04,0.03,-0.13,110.12,-77.50,0.44,0.50,5.25,5.56,3,6
1772655379.132052,1042201,-0.14,0.48,0.26,-30.12,-76.31,70.62,-1.19,-6.81,-8.19,0.08,0.04,0.00,111.37,-77.69,0.25,-0.06,1.94,5.19,4,6
1772655379.172843,1042242,-0.23,0.13,0.30,-28.62,-76.31,71.00,2.50,-2.06,-7.50,-0.03,-0.04,0.06,111.94,-77.81,0.06,0.56,1.87,3.56,3,6
1772655379.213187,1042282,-0.24,-0.04,0.27,-27.75,-76.37,71.31,1.12,2.31,-5.37,-0.06,-0.04,0.08,112.31,-77.94,0.06,3.31,1.37,3.56,3,6
1772655379.252324,1042322,0.05,-0.04,0.12,-27.25,-76.62,71.50,-1.62,4.25,-4.56,0.04,-0.12,-0.06,112.56,-78.06,0.06,4.44,0.37,3.94,3,6
1772655379.291640,1042361,0.17,0.02,0.05,-26.75,-76.81,71.56,-3.44,2.87,-4.19,0.01,-0.17,-0.06,112.62,-78.12,0.25,5.75,0.69,2.00,4,6
1772655379.333113,1042402,-0.03,0.12,0.18,-26.31,-76.87,71.56,-4.44,1.62,-1.31,-0.02,-0.17,0.21,112.50,-78.12,0.50,5.56,0.00,-0.31,4,6
1772655379.373673,1042443,-0.30,0.11,0.23,-26.19,-76.94,71.44,-3.56,5.12,-0.88,-0.02,-0.31,0.26,112.50,-78.06,0.75,1.31,1.50,-1.44,5,6
1772655379.414325,1042483,-0.44,-0.13,0.21,-26.44,-77.19,71.31,-5.56,11.88,-0.37,-0.01,-0.21,0.50,112.31,-77.94,0.75,-4.00,5.56,-2.69,4,3
1772655379.453301,1042522,-0.51,-0.29,0.10,-27.37,-77.75,71.00,-12.00,21.81,-1.19,-0.09,-0.06,0.27,112.62,-77.75,0.62,-11.13,0.81,-2.06,4,3
1772655379.492993,1042562,-0.42,-0.32,0.20,-28.69,-78.69,70.56,-17.56,29.69,-3.87,-0.06,0.04,0.29,112.81,-77.69,0.31,-11.06,3.37,-2.69,5,3
1772655379.534006,1042603,-0.43,-0.40,0.27,-30.19,-79.94,69.94,-27.19,38.56,-3.37,-0.07,0.13,0.21,113.56,-77.62,359.81,-10.25,1.87,0.94,4,4
1772655379.574584,1042644,-0.99,-0.73,1.07,-33.75,-81.31,68.81,-37.63,51.13,5.00,-0.01,0.31,-0.35,114.62,-77.69,359.50,-4.94,5.94,1.62,4,4
1772655379.614473,1042684,0.51,0.22,0.57,-43.31,-82.75,66.87,-45.88,56.44,12.25,0.08,0.21,-0.37,115.94,-77.56,359.62,7.37,10.50,0.62,5,4
1772655379.653881,1042723,1.38,0.83,-0.02,-5.25,-83.75,64.75,-32.63,48.44,5.75,0.26,0.38,-0.76,118.00,-77.31,0.06,10.94,13.88,0.13,5,5
1772655379.693539,1042763,1.21,0.53,-0.52,-5.25,-84.37,63.63,-17.19,35.50,-0.81,0.25,0.04,-0.15,117.94,-77.25,0.44,4.19,-3.37,-1.31,6,7
1772655379.734772,1042804,0.98,-0.13,-0.64,-5.25,-84.62,63.25,-2.00,16.50,2.12,0.28,-0.24,-0.12,117.19,-77.37,0.37,-3.19,-3.44,0.81,6,7
1772655379.774999,1042844,0.74,0.01,-0.80,-5.37,-84.56,63.00,0.94,10.38,5.25,-0.06,0.00,-0.08,117.56,-77.37,0.19,-4.37,3.69,1.12,5,7
1772655379.815584,1042885,1.15,0.32,-0.88,-5.56,-84.37,62.94,4.00,-3.56,1.81,-0.18,-0.10,-0.05,118.69,-77.31,0.06,-3.50,6.44,0.44,5,8
1772655379.854878,1042924,1.38,0.99,-1.03,-5.56,-84.37,63.19,15.38,-25.37,-0.37,-0.09,-0.15,-0.31,120.00,-77.12,0.00,-2.37,8.75,0.50,4,8
1772655379.894185,1042963,1.91,1.14,-0.90,-5.62,-84.06,64.25,34.19,-47.56,1.37,-0.07,-0.01,-0.35,121.00,-77.00,359.94,-5.19,4.87,0.06,3,8
1772655379.935236,1043005,0.47,0.84,0.09,-54.63,-82.75,66.06,58.00,-79.25,7.06,0.02,-0.07,0.02,121.69,-76.87,359.81,-3.81,0.75,-2.44,3,7
1772655379.976038,1043045,-0.72,0.37,0.82,-42.88,-80.50,68.19,65.44,-72.75,7.87,-0.11,-0.08,0.31,121.44,-76.87,359.62,-4.12,-2.56,-0.94,4,7
1772655380.016356,1043085,-0.75,-0.11,0.70,-36.88,-78.37,70.37,52.88,-59.38,-1.19,-0.10,0.00,0.41,121.50,-76.81,359.62,-1.25,2.06,-1.56,4,7
1772655380.055483,1043125,-0.91,-0.27,0.78,-32.88,-76.75,72.19,39.13,-44.44,-5.69,-0.14,-0.07,0.13,121.56,-76.69,359.75,2.50,3.87,-2.06,4,7
1772655380.094987,1043164,-0.15,-0.08,0.37,-30.25,-75.87,73.56,23.87,-28.69,-9.06,-0.06,-0.06,0.16,121.56,-76.56,0.00,5.69,4.25,-1.69,2,4
1772655380.136554,1043205,-0.56,-0.16,0.56,-27.31,-75.12,74.69,12.94,-28.37,-12.88,-0.07,-0.20,-0.13,121.69,-76.44,0.37,3.37,1.12,-1.06,2,4
1772655380.177045,1043246,-0.82,-0.29,0.69,-24.75,-74.44,75.56,10.44,-21.56,-7.69,-0.15,-0.31,0.15,121.06,-76.37,0.56,1.50,-2.50,-3.00,2,3
1772655380.217261,1043286,-0.48,-0.22,0.36,-23.25,-73.81,76.12,7.19,-13.50,-3.19,-0.13,-0.11,0.18,120.37,-76.25,0.75,1.25,-0.56,-3.81,2,3
1772655380.256007,1043325,-0.16,-0.07,0.06,-22.69,-73.50,76.44,5.19,-5.37,-0.94,0.09,0.00,0.13,120.00,-76.19,1.00,2.31,0.50,-2.31,2,3
1772655380.295552,1043365,0.19,0.02,-0.16,-22.50,-73.37,76.62,1.69,-3.50,-0.94,0.11,0.00,-0.15,120.06,-76.12,1.12,2.62,4.31,-0.75,2,2
1772655380.336998,1043406,0.12,-0.09,0.02,-22.12,-73.25,76.69,-2.31,-5.56,-1.94,0.07,-0.07,-0.17,120.62,-76.00,1.31,1.62,3.44,0.06,3,3
1772655380.377841,1043447,-0.08,-0.31,0.20,-21.44,-73.06,76.62,-8.31,-5.25,-1.75,0.00,-0.03,-0.24,120.94,-75.94,1.31,-1.25,0.25,-0.94,5,3
1772655380.418236,1043487,-0.31,-0.28,0.39,-20.56,-72.94,76.37,-15.94,-2.44,-1.00,-0.08,-0.10,0.00,120.81,-75.87,1.37,-0.50,-1.44,-2.62,5,3
1772655380.457182,1043526,-0.44,0.23,0.34,-19.62,-72.87,75.94,-17.81,2.62,-2.06,-0.04,-0.11,0.10,120.31,-75.81,1.44,-1.81,-2.31,-1.94,4,3
1772655380.496637,1043566,-0.15,0.32,0.14,-18.94,-73.12,75.56,-15.63,7.94,-2.19,0.07,-0.04,0.10,120.00,-75.81,1.44,-0.62,-0.81,-1.50,5,3
1772655380.537284,1043607,0.03,0.29,-0.01,-19.06,-73.50,75.06,-11.94,14.19,1.56,0.08,-0.01,0.07,120.00,-75.75,1.44,-0.50,1.87,0.25,5,3
1772655380.578091,1043647,-0.38,-0.04,0.17,-19.56,-74.06,74.56,-14.25,21.50,0.94,0.04,-0.06,-0.11,120.50,-75.75,1.44,-0.75,2.81,1.75,5,4
1772655380.618598,1043688,-1.06,-0.19,0.69,-19.94,-75.06,74.00,-23.06,32.19,-4.19,-0.03,0.00,-0.06,121.06,-75.75,1.31,-1.44,2.00,1.94,6,4
1772655380.657928,1043727,-2.04,-0.22,1.49,-20.19,-76.81,73.31,-38.13,68.69,-10.44,-0.13,-0.04,0.15,121.25,-75.81,1.19,-2.12,-1.00,0.81,7,4
1772655380.697380,1043766,-0.63,-0.08,1.51,-22.00,-79.75,72.19,-44.81,84.00,-10.38,-0.12,-0.14,0.06,121.12,-75.81,1.12,-1.12,1.19,-0.25,7,4
1772655380.738561,1043808,1.52,0.32,0.10,-26.56,-82.81,70.87,-38.56,69.37,-7.75,0.01,-0.05,-0.35,121.44,-75.75,1.06,-1.31,2.25,-0.37,6,3
1772655380.779683,1043849,1.81,0.50,-1.08,-2.81,-84.81,69.81,-24.37,38.19,-2.25,0.09,0.01,-0.34,121.62,-75.75,1.06,-0.75,-0.37,-0.69,4,3
1772655380.819574,1043889,1.03,0.18,-0.85,-2.75,-85.75,69.12,-13.25,16.12,1.62,0.03,0.01,-0.03,121.12,-75.75,1.06,-0.62,-4.25,-1.44,4,3
1772655380.858880,1043928,0.52,0.10,-0.55,-2.81,-86.00,68.62,-9.75,4.56,0.69,-0.03,-0.03,0.15,120.62,-75.75,1.06,-0.94,-2.50,-1.50,4,4
1772655380.898149,1043967,0.44,0.14,-0.42,-2.75,-86.06,68.25,-9.88,0.62,-1.37,-0.15,-0.11,0.10,120.44,-75.75,1.06,-0.62,-0.19,-1.44,4,4
1772655380.939132,1044008,0.16,0.21,-0.35,-2.75,-86.06,67.94,-7.19,-6.62,0.75,-0.10,-0.19,0.06,120.25,-75.69,1.12,-0.31,0.62,-1.19,4,4
1772655380.979632,1044049,0.20,0.31,-0.18,-2.87,-85.75,67.62,-1.62,-10.94,3.81,-0.06,-0.08,0.14,120.44,-75.69,1.06,-2.94,1.00,1.87,3,4
1772655381.019744,1044089,0.04,0.30,-0.06,-3.12,-85.31,67.44,3.06,-10.88,4.50,0.02,0.00,0.08,120.81,-75.75,0.88,-1.12,1.25,2.56,4,5
1772655381.058847,1044128,-0.22,0.27,0.11,-3.31,-84.94,67.44,5.37,-5.62,2.25,0.00,0.00,0.07,121.31,-75.81,0.69,-0.81,2.00,3.62,6,7
1772655381.098326,1044168,-0.21,0.05,0.22,-3.31,-84.81,67.56,3.44,-2.00,0.56,0.00,0.11,-0.03,121.62,-75.87,0.62,3.69,1.69,1.44,5,7
1772655381.139699,1044209,-0.37,-0.23,0.40,-3.31,-84.87,67.56,-5.19,7.06,-0.06,0.02,-0.06,-0.10,121.81,-75.87,0.94,7.19,2.19,2.06,5,7
1772655381.180342,1044250,-0.62,-0.22,0.51,-3.25,-85.12,67.31,-11.19,15.31,-1.44,0.03,-0.14,-0.02,121.69,-75.94,1.25,10.31,0.00,1.87,5,6
1772655381.220817,1044290,-0.60,-0.27,0.56,-3.19,-85.69,66.87,-15.38,29.00,-1.00,0.01,-0.18,0.00,121.37,-75.94,1.56,7.12,-1.06,1.06,6,6
1772655381.259902,1044329,0.25,-0.03,0.09,-3.06,-86.44,66.31,-16.50,31.19,-2.75,0.00,-0.12,-0.10,121.06,-75.94,1.75,0.75,-1.62,-1.81,6,5
1772655381.299663,1044369,0.66,-0.07,-0.35,-2.94,-86.94,65.81,-13.31,23.12,-2.75,0.02,-0.18,-0.07,120.87,-75.87,1.81,-3.31,-1.00,-2.75,6,5
1772655381.340865,1044410,0.46,-0.02,-0.35,-2.94,-87.00,65.31,-12.56,11.31,3.19,-0.02,0.03,-0.17,120.44,-75.81,1.69,-2.94,-4.06,-2.31,7,5
1772655381.381677,1044450,0.51,0.21,-0.40,-176.81,-86.81,64.62,-10.94,3.94,5.81,-0.03,-0.11,0.05,119.94,-75.81,1.69,-0.50,-2.12,-0.81,7,5
1772655381.421400,1044491,0.49,0.55,-0.34,-176.56,-86.56,64.00,-4.00,-2.12,6.56,0.00,-0.02,0.00,119.62,-75.81,1.87,5.06,-0.50,-1.69,6,4
1772655381.460648,1044530,0.32,0.49,-0.27,-176.25,-86.25,63.63,2.44,-7.94,6.56,-0.06,-0.14,0.08,119.37,-75.75,2.06,2.81,0.00,-0.31,3,2
1772655381.499939,1044569,0.30,0.53,-0.24,-175.75,-85.75,63.31,8.19,-11.50,6.19,-0.03,-0.16,0.03,119.19,-75.75,2.19,2.81,0.62,-1.44,3,2
1772655381.541167,1044611,0.56,0.53,-0.31,-4.75,-85.19,63.38,20.31,-19.12,6.12,0.02,-0.12,0.13,119.00,-75.69,2.31,-1.69,0.69,0.19,3,2
1772655381.581929,1044651,0.85,0.87,-0.61,-5.06,-84.75,64.06,36.38,-31.81,6.12,-0.01,-0.17,0.05,119.19,-75.69,2.12,-3.81,1.06,1.06,3,2
1772655381.622108,1044692,1.14,0.55,-0.55,-5.44,-84.00,65.62,57.44,-53.56,9.69,0.00,0.04,0.07,119.44,-75.69,2.00,-3.37,-0.37,1.25,3,2
1772655381.661213,1044731,0.13,-0.23,0.10,-53.69,-82.37,67.50,62.56,-60.69,18.37,0.01,0.13,0.10,119.56,-75.81,1.81,0.00,-0.44,1.44,2,2
1772655381.700565,1044770,-0.25,-0.42,0.48,-47.44,-80.31,69.00,54.38,-58.06,18.19,-0.03,0.09,0.03,119.56,-75.81,1.94,6.56,2.31,0.13,5,2
1772655381.741767,1044811,-0.86,-0.70,0.72,-43.19,-78.56,70.25,28.19,-40.56,4.37,0.00,0.02,0.03,119.56,-75.75,2.25,5.75,1.31,0.31,5,4
1772655381.782856,1044852,-0.45,-0.43,0.57,-39.69,-77.62,71.12,8.44,-26.31,-9.19,-0.04,-0.09,0.14,119.44,-75.75,2.50,3.31,0.88,-0.75,5,5
1772655381.823181,1044892,-0.17,-0.05,0.30,-35.75,-77.19,71.81,1.31,-17.81,-14.81,0.00,-0.10,-0.08,119.56,-75.69,2.56,-0.75,1.69,-0.44,5,5
1772655381.862015,1044931,-0.18,-0.38,0.24,-32.06,-76.94,72.50,1.44,-14.38,-13.19,0.00,0.00,0.00,119.75,-75.69,2.37,-4.50,-0.62,1.12,6,5
1772655381.901491,1044971,0.03,-0.32,0.08,-29.69,-76.62,72.87,0.81,-15.00,-5.50,-0.06,0.09,-0.04,119.94,-75.75,2.25,-3.00,1.31,1.06,6,5
1772655381.942864,1045012,0.23,-0.16,-0.11,-27.94,-76.12,73.19,2.62,-19.44,-1.25,0.00,0.02,-0.09,120.31,-75.75,2.06,-0.81,1.56,0.94,7,5
1772655381.983277,1045053,-0.27,-0.04,0.13,-26.56,-75.50,73.37,3.94,-17.25,0.81,-0.02,-0.06,-0.01,120.44,-75.75,2.12,2.12,0.50,0.94,7,4
1772655382.023663,1045093,-0.32,0.08,0.32,-25.87,-74.94,73.50,2.37,-12.13,1.69,-0.06,-0.12,0.06,120.37,-75.81,2.19,3.94,-0.06,1.75,7,5
1772655382.062929,1045132,-0.20,0.10,0.32,-25.44,-74.56,73.50,0.62,-6.75,-0.50,-0.01,-0.10,-0.04,120.56,-75.81,2.25,2.12,2.19,2.06,7,5
1772655382.102808,1045172,-0.14,0.00,0.19,-24.94,-74.37,73.56,-0.25,-3.94,-2.12,-0.03,-0.09,-0.11,120.87,-75.87,2.25,-0.13,1.25,2.19,4,5
1772655382.143572,1045213,-0.21,0.15,0.18,-24.37,-74.31,73.69,0.13,-1.50,-3.12,0.00,-0.05,-0.01,121.19,-75.87,2.19,0.06,-0.19,1.44,4,2
1772655382.184029,1045253,-0.34,0.04,0.22,-24.12,-74.31,73.81,4.25,3.06,-1.31,-0.01,-0.11,0.00,121.31,-76.00,2.06,-2.50,-1.00,2.31,4,3
1772655382.227536,1045294,-1.43,-0.66,0.77,-24.62,-74.56,73.94,0.37,16.37,2.37,-0.02,-0.02,0.10,121.25,-76.06,1.94,-0.44,-1.94,0.62,4,3
1772655382.264074,1045333,-2.72,-1.53,1.61,-26.37,-75.50,73.50,-25.62,49.63,-0.62,-0.01,-0.09,0.43,121.00,-76.12,1.87,-1.25,-2.94,-0.44,4,3
1772655382.302988,1045372,-0.76,-1.23,1.81,-29.56,-78.00,72.12,-59.31,92.31,-9.63,0.00,-0.25,-0.02,120.75,-76.12,1.87,0.88,1.50,-0.88,4,3
1772655382.344089,1045414,1.30,0.49,0.34,-34.38,-81.56,69.87,-85.44,91.87,-23.94,0.01,-0.07,-0.30,121.31,-76.06,1.81,-1.75,3.31,1.94,4,4
1772655382.385081,1045454,1.61,1.11,-0.63,-3.44,-84.69,67.81,-65.06,65.44,-21.81,0.09,-0.08,-0.43,121.81,-76.06,1.75,-2.56,0.75,0.50,7,6
1772655382.425560,1045495,1.48,0.77,-0.87,-2.69,-86.62,66.44,-33.63,38.50,-8.50,0.05,-0.03,-0.08,121.81,-76.06,1.44,-6.75,-5.44,0.31,6,6
1772655382.464566,1045534,0.81,-0.18,-0.58,-2.56,-87.25,65.56,-12.06,16.94,4.31,0.00,0.12,0.16,121.44,-76.12,1.19,-6.31,-2.19,-1.00,6,5
1772655382.503762,1045573,0.44,-0.03,-0.34,-2.75,-87.19,64.94,-10.44,8.44,5.37,0.07,-0.02,-0.04,121.50,-76.12,1.00,-3.94,0.06,-0.44,6,5
1772655382.544923,1045614,0.09,0.10,-0.16,-2.87,-87.06,64.31,-12.94,8.19,3.00,-0.10,0.06,0.11,121.69,-76.12,0.88,-1.25,1.19,0.37,6,5
1772655382.585475,1045655,-0.02,0.15,-0.08,-176.94,-86.87,63.69,-9.31,8.25,6.37,-0.10,-0.04,0.04,121.87,-76.12,0.88,0.56,1.75,0.37,6,5
1772655382.625914,1045695,0.09,0.12,0.00,-176.56,-86.56,63.06,-3.00,6.12,10.31,0.02,-0.05,-0.05,122.00,-76.06,0.88,-0.06,0.56,-0.13,6,4
1772655382.665085,1045734,-0.03,-0.13,0.09,-176.19,-86.12,62.63,2.19,4.50,10.81,-0.03,0.02,0.03,121.94,-76.06,0.88,-1.19,-1.06,0.44,6,4
1772655382.704607,1045774,0.08,-0.23,0.04,-175.81,-85.69,62.31,0.37,3.87,9.25,-0.05,-0.05,-0.01,121.94,-76.06,0.88,-0.31,-0.31,0.25,6,4
1772655382.745837,1045815,0.17,-0.07,-0.06,-175.56,-85.44,61.88,-6.75,1.25,5.31,-0.01,-0.03,0.00,121.94,-76.06,0.88,0.50,-0.37,-0.06,5,2
1772655382.786314,1045856,-0.10,0.09,0.10,-175.37,-85.25,61.44,-5.44,3.87,4.44,-0.02,0.00,0.06,121.81,-76.12,0.88,0.62,-1.44,-0.50,2,1
1772655382.826945,1045896,-0.15,0.01,0.18,-175.12,-85.00,61.06,-0.62,7.00,6.37,-0.04,-0.08,0.17,121.50,-76.12,0.88,-0.62,-2.37,-0.88,2,1
1772655382.865686,1045935,0.17,0.19,0.07,-174.87,-84.69,60.81,3.75,6.81,7.94,0.00,-0.04,0.00,121.12,-76.06,1.00,0.75,-0.37,-2.19,2,1
1772655382.904945,1045975,0.38,0.19,-0.16,-174.56,-84.31,60.81,9.75,2.94,7.44,0.03,0.00,-0.16,121.06,-76.06,1.00,0.06,0.25,-1.06,2,0
1772655382.946568,1046016,0.51,0.05,-0.31,-174.37,-84.12,61.00,9.00,-6.06,2.12,0.00,-0.06,-0.11,121.06,-76.00,1.06,0.56,-0.19,-0.75,2,1
1772655382.987105,1046056,0.09,0.05,-0.13,-174.37,-84.19,61.38,8.44,-8.00,-2.00,-0.04,-0.06,0.01,120.87,-76.00,1.12,0.25,-1.75,-0.81,2,1
1772655383.027551,1046097,0.05,0.12,-0.05,-174.44,-84.31,61.81,11.06,-7.37,-1.69,-0.08,-0.08,0.17,120.56,-76.00,1.12,0.25,-1.44,-0.75,2,4
1772655383.066709,1046136,0.25,0.09,-0.09,-174.44,-84.37,62.38,15.19,-10.38,0.75,-0.01,-0.01,0.10,120.44,-76.00,1.19,1.62,0.37,-0.06,1,5
1772655383.105928,1046175,0.25,-0.11,-0.08,-174.44,-84.37,63.00,16.37,-12.63,2.25,0.04,-0.03,0.00,120.44,-76.00,1.25,2.94,1.69,1.25,1,5
1772655383.147085,1046217,0.10,-0.06,0.00,-174.31,-84.31,63.56,15.38,-13.13,1.37,0.08,-0.07,-0.03,120.62,-76.00,1.37,3.44,1.12,1.44,2,5
1772655383.187994,1046257,0.17,0.15,-0.08,-5.62,-84.31,64.19,18.25,-15.19,-0.25,-0.06,-0.05,-0.14,120.69,-76.06,1.44,1.00,-0.19,0.69,2,5
1772655383.228454,1046297,0.55,0.28,-0.35,-5.62,-84.25,65.12,25.19,-26.00,-2.25,-0.18,-0.10,-0.03,120.69,-76.00,1.44,-0.50,-0.37,-1.00,2,5
1772655383.267563,1046337,1.02,0.13,-0.41,-5.56,-83.94,66.37,30.19,-38.44,-1.44,-0.11,0.00,0.13,120.31,-76.00,1.44,-0.88,-2.06,-2.44,2,5
1772655383.306848,1046376,-0.05,-0.25,-0.02,-56.31,-83.06,67.62,32.63,-47.81,4.69,0.09,-0.01,0.17,120.00,-75.94,1.50,0.00,-1.44,-0.69,2,5
1772655383.347757,1046417,-0.26,-0.29,0.22,-48.75,-81.81,68.56,26.19,-36.94,7.94,0.09,-0.04,0.18,119.81,-75.94,1.62,3.94,1.00,0.00,2,5
1772655383.388261,1046458,-0.09,-0.22,0.17,-44.44,-80.69,69.25,18.19,-30.87,2.69,0.04,0.00,-0.10,119.94,-75.94,1.81,4.00,2.62,0.25,2,5
1772655383.429133,1046498,-0.13,-0.11,0.20,-40.63,-79.87,69.94,14.44,-26.94,-2.87,-0.11,-0.17,-0.08,120.00,-75.87,1.94,0.19,-0.37,0.50,2,1
1772655383.468373,1046537,0.06,-0.23,0.04,-36.56,-79.12,70.62,11.50,-32.19,-5.25,-0.22,-0.14,0.09,119.87,-75.87,1.94,-1.12,-1.44,-1.12,2,1
1772655383.507781,1046577,-0.39,-0.29,0.13,-32.63,-78.12,71.19,5.62,-33.56,-0.62,-0.06,-0.02,0.24,119.62,-75.87,1.94,-0.88,-1.37,-1.25,2,2
1772655383.548323,1046618,-0.67,0.05,0.34,-31.00,-77.25,71.25,3.19,-15.44,4.37,0.09,0.05,0.25,119.12,-75.87,1.94,1.44,-1.00,0.56,2,2
1772655383.588986,1046659,-0.06,0.11,0.15,-30.62,-76.81,71.31,4.50,-6.75,0.88,0.07,0.05,-0.11,119.37,-75.94,2.00,1.62,3.44,1.75,2,2
1772655383.629779,1046699,0.35,0.19,-0.02,-30.19,-76.56,71.50,6.19,-10.00,-2.12,-0.02,-0.06,-0.38,120.06,-75.94,2.00,-0.06,2.62,1.62,1,2
1772655383.669083,1046738,0.36,0.32,-0.09,-29.06,-76.19,71.94,12.19,-20.62,-3.06,-0.23,-0.07,-0.12,120.12,-75.94,1.87,-1.75,-2.00,0.19,4,3
1772655383.708275,1046777,0.29,0.29,-0.17,-27.87,-75.37,72.50,18.37,-28.62,-2.69,-0.19,0.08,0.11,119.87,-75.94,1.87,-0.31,-1.37,-3.25,4,5
1772655383.749546,1046819,0.21,0.35,-0.26,-27.06,-74.31,73.31,27.31,-30.56,-0.56,0.05,0.09,0.09,119.31,-75.87,2.00,0.37,-2.06,-2.62,4,5
1772655383.790014,1046859,-0.07,0.02,-0.03,-26.75,-73.31,74.25,31.56,-27.75,0.56,0.12,0.10,0.25,118.94,-75.75,2.31,8.38,3.44,-3.25,4,5
1772655383.830560,1046900,-0.27,-0.17,0.29,-26.44,-72.44,75.25,28.56,-22.44,-0.50,0.10,-0.11,0.00,118.75,-75.62,2.81,6.44,1.37,-2.50,4,6
1772655383.869966,1046939,-0.31,-0.31,0.41,-26.25,-71.75,76.12,22.31,-17.25,-3.25,-0.11,-0.11,-0.12,118.56,-75.50,2.94,0.19,0.81,-2.00,4,5
1772655383.909339,1046978,-0.64,-0.50,0.56,-25.56,-71.25,77.00,17.44,-13.69,-4.69,-0.13,-0.20,-0.04,118.44,-75.50,2.94,-2.50,-2.44,-0.56,4,5
1772655383.950506,1047020,-0.64,-0.53,0.50,-25.31,-71.00,77.44,5.50,-2.37,-1.19,-0.10,-0.03,-0.02,118.19,-75.50,2.87,-0.13,-1.00,-2.06,4,5
1772655383.990932,1047060,-0.21,-0.16,0.22,-24.87,-71.06,77.69,-0.31,5.50,-0.69,0.01,-0.05,0.22,117.62,-75.44,3.00,0.06,-2.37,-2.50,5,5
1772655384.031370,1047101,-0.03,-0.15,-0.03,-25.06,-71.31,77.62,-3.06,7.56,-0.19,0.01,-0.04,0.03,117.50,-75.37,3.06,-0.25,1.06,-1.37,6,6
1772655384.070216,1047140,-0.24,-0.16,0.03,-25.37,-71.62,77.44,-7.62,12.06,1.75,0.02,0.00,-0.03,117.50,-75.31,3.19,2.44,0.81,-0.88,3,4
1772655384.109609,1047179,-1.05,-0.26,0.66,-26.06,-72.19,77.00,-12.38,24.62,1.00,0.00,-0.08,0.07,117.44,-75.31,3.25,1.56,-1.00,0.75,3,3
1772655384.151092,1047220,-2.74,-0.35,1.77,-27.25,-73.56,76.37,-26.62,59.00,-4.31,0.00,-0.11,0.24,117.19,-75.37,3.25,-0.31,-1.69,0.69,3,2
1772655384.191841,1047261,-0.97,-0.23,1.87,-31.12,-76.25,75.31,-36.69,104.37,-2.44,-0.06,-0.22,0.11,117.06,-75.37,3.25,-1.19,2.44,0.62,3,2
1772655384.231969,1047301,1.88,0.07,0.09,-39.88,-79.62,73.75,-43.00,96.50,-5.94,-0.07,-0.17,-0.30,117.75,-75.31,3.19,-2.87,3.81,2.00,3,2
1772655384.271116,1047341,2.58,0.19,-1.14,-51.81,-82.06,72.25,-33.69,61.06,-5.00,0.05,0.02,-0.38,118.37,-75.37,2.87,-4.56,1.44,2.06,3,2
1772655384.310427,1047380,1.44,0.13,-1.01,-61.63,-83.12,71.12,-24.87,30.69,-0.56,0.15,0.13,-0.21,118.56,-75.37,2.75,-2.31,-2.44,0.00,3,2
1772655384.351770,1047421,0.47,0.00,-0.71,-6.12,-83.25,70.25,-13.63,7.00,6.19,0.03,-0.03,0.12,118.37,-75.44,2.56,-2.87,-3.31,0.88,5,6
1772655384.392204,1047462,0.02,0.05,-0.16,-6.31,-83.12,69.50,-11.50,11.75,5.81,-0.08,0.00,0.13,118.25,-75.50,2.44,-1.37,-0.75,0.56,5,5
1772655384.432820,1047502,0.15,-0.09,-0.06,-6.50,-83.12,68.81,-12.69,14.75,4.12,-0.10,0.04,0.16,118.31,-75.50,2.44,0.69,1.87,0.31,4,6
1772655384.471584,1047541,0.01,-0.10,0.09,-6.62,-83.12,68.06,-15.00,15.31,3.75,0.00,-0.13,0.00,118.50,-75.50,2.50,0.50,1.37,-0.50,4,5
1772655384.511281,1047581,-0.14,-0.19,0.19,-81.62,-83.12,67.31,-16.81,13.69,3.75,0.00,-0.03,-0.06,118.56,-75.44,2.50,-0.94,-0.06,0.25,4,5
1772655384.552590,1047622,-0.29,-0.35,0.24,-86.50,-83.06,66.44,-18.94,21.44,3.69,-0.10,-0.13,0.04,118.62,-75.50,2.37,-2.94,-0.19,0.50,5,5
1772655384.593304,1047663,0.07,-0.27,-0.06,-92.50,-82.94,65.44,-22.94,21.75,2.75,-0.13,-0.05,0.03,118.62,-75.50,2.19,-4.44,-1.00,0.00,4,5
1772655384.633646,1047703,0.30,0.03,-0.22,-97.62,-82.75,64.25,-25.81,17.00,1.69,-0.10,0.08,0.10,118.56,-75.50,2.06,-2.31,-1.31,-0.13,5,5
1772655384.672646,1047742,0.33,0.12,-0.22,-101.19,-82.62,63.13,-24.19,13.75,1.87,0.03,0.03,0.05,118.50,-75.50,2.06,0.69,-0.06,-0.13,5,5
1772655384.711856,1047781,0.21,0.00,-0.07,-104.25,-82.37,62.06,-21.12,13.50,2.81,0.09,-0.02,0.00,118.50,-75.50,2.06,-0.31,-0.31,0.50,5,5
1772655384.753388,1047823,0.19,0.12,-0.07,-106.94,-82.12,61.13,-17.50,11.56,3.25,-0.02,-0.09,-0.03,118.37,-75.56,2.00,-0.94,-0.81,0.13,3,1
1772655384.793995,1047863,0.05,0.20,-0.01,-108.62,-81.87,60.31,-12.69,6.56,1.06,-0.10,-0.13,0.00,118.31,-75.56,1.87,-3.31,-1.31,-0.13,3,1
1772655384.834250,1047904,0.08,0.21,0.00,-109.44,-81.75,59.75,-7.94,4.19,1.44,-0.09,-0.09,0.14,118.06,-75.56,1.81,-2.44,-1.62,-1.44,3,1
1772655384.873380,1047943,-0.02,0.02,0.14,-110.06,-81.56,59.38,-4.06,6.19,4.87,0.00,-0.04,0.17,117.87,-75.56,1.69,-2.12,-0.94,0.50,3,1
1772655384.912576,1047982,0.20,0.04,0.06,-111.19,-81.19,58.94,-2.37,8.13,6.87,0.05,-0.09,0.08,117.87,-75.62,1.69,0.75,-1.25,1.81,3,1
1772655384.953783,1048023,0.20,0.06,0.03,-112.37,-80.87,58.56,0.00,8.50,5.75,0.02,-0.04,-0.18,118.00,-75.75,1.56,0.31,-0.44,4.25,3,2
1772655384.994631,1048064,0.05,0.22,-0.04,-113.81,-80.50,58.38,4.25,7.19,3.56,-0.10,-0.13,-0.09,118.12,-75.87,1.37,0.37,-2.75,4.19,6,4
1772655385.035050,1048104,-0.01,0.00,0.02,-114.75,-80.31,58.44,5.69,2.00,2.50,-0.08,0.00,-0.07,118.06,-76.06,1.19,-1.62,-2.31,2.44,5,5
1772655385.074019,1048144,-0.18,-0.14,0.18,-115.12,-80.19,58.56,6.62,2.06,3.19,-0.06,0.00,0.03,118.06,-76.12,1.12,0.56,-0.88,0.94,5,5
1772655385.113358,1048183,0.05,-0.27,0.04,-115.56,-80.06,58.75,7.62,2.69,3.00,-0.08,-0.08,0.13,117.94,-76.19,1.12,0.56,-1.56,0.75,5,5
1772655385.154890,1048224,0.04,-0.46,-0.13,-116.19,-80.00,59.00,6.00,1.31,6.06,-0.06,0.02,-0.03,117.87,-76.25,1.06,-1.12,-1.12,0.75,5,5
1772655385.195562,1048265,0.24,-0.35,-0.35,-116.37,-79.81,59.06,2.25,-2.19,7.50,-0.02,-0.21,0.07,117.62,-76.19,1.19,3.19,-0.31,-1.62,5,5
1772655385.236133,1048305,0.36,-0.28,-0.52,-115.19,-79.62,58.81,-2.50,-6.37,9.25,-0.06,-0.04,0.02,117.31,-76.19,1.25,0.44,-2.56,-1.31,5,5
1772655385.274798,1048344,0.48,-0.01,-0.43,-113.12,-79.44,58.38,-7.87,-10.13,5.75,0.00,0.00,0.19,116.94,-76.06,1.56,4.56,1.37,-2.94,5,5
1772655385.314457,1048384,0.32,0.17,-0.18,-110.44,-79.44,57.94,-10.06,-10.50,1.12,0.08,-0.12,0.23,116.75,-76.06,1.62,-0.62,-0.50,0.25,6,5
1772655385.355793,1048425,0.17,0.14,-0.06,-108.31,-79.62,57.63,-11.38,-7.62,-3.81,0.08,-0.05,0.13,116.87,-76.00,1.62,-1.69,3.19,0.75,5,5
1772655385.396028,1048466,0.04,0.18,0.05,-106.75,-79.87,57.38,-10.38,-6.00,-6.00,0.01,-0.04,0.00,117.44,-76.00,1.37,-5.31,2.62,2.12,3,2
1772655385.436673,1048506,-0.12,0.07,0.09,-105.50,-80.19,57.31,-6.75,-5.94,-8.94,-0.08,-0.07,0.10,118.31,-76.06,1.00,-9.19,2.06,3.81,3,2
1772655385.476122,1048545,-0.10,-0.15,0.13,-104.44,-80.56,57.44,-7.25,-5.56,-6.31,-0.12,0.12,-0.13,119.19,-76.19,0.44,-7.94,1.37,3.31,2,2
1772655385.515043,1048584,0.04,0.06,0.15,-103.19,-80.81,57.38,-7.50,-5.37,-4.06,-0.06,0.20,-0.11,119.69,-76.25,0.25,-0.25,1.06,3.00,2,2
1772655385.556277,1048626,0.07,0.11,0.18,-101.56,-81.00,57.31,-3.81,-6.87,-4.69,0.02,0.09,-0.05,120.19,-76.37,0.19,4.56,0.69,2.69,2,2
1772655385.597042,1048666,0.01,-0.01,0.13,-99.81,-81.25,57.44,-0.31,-6.81,-4.62,0.06,0.01,-0.03,120.31,-76.37,0.37,5.31,1.19,0.19,2,1
1772655385.637109,1048707,0.08,0.01,0.00,-98.37,-81.44,57.69,3.19,-6.06,-4.50,0.03,-0.07,-0.11,120.25,-76.37,0.56,1.81,-0.37,0.25,5,2
1772655385.676452,1048746,0.22,0.23,-0.10,-97.06,-81.62,58.06,8.13,-7.19,-4.62,0.00,-0.05,-0.15,120.19,-76.37,0.62,0.69,0.13,-0.62,4,4
1772655385.715958,1048785,0.83,0.70,-0.50,-94.69,-81.87,58.81,18.56,-15.44,-4.19,0.00,0.03,-0.15,120.25,-76.31,0.62,-0.25,1.06,-1.44,4,4
1772655385.756852,1048826,1.51,0.90,-0.71,-88.50,-82.06,60.31,40.50,-41.19,-4.75,0.00,0.09,0.00,120.25,-76.19,0.81,1.56,0.75,-3.50,4,4
1772655385.797808,1048867,1.44,0.23,-0.44,-76.44,-82.00,62.44,50.63,-64.00,-3.37,-0.03,0.00,0.06,119.87,-76.06,1.00,0.44,-1.19,-2.94,4,4
1772655385.838121,1048907,-0.37,-0.57,0.32,-61.31,-81.12,64.69,46.00,-67.81,-2.50,-0.03,-0.03,0.17,119.56,-76.00,1.12,2.06,-0.50,-1.62,5,5
1772655385.877385,1048947,-1.27,-0.67,0.92,-50.69,-79.87,66.50,29.37,-48.25,-2.69,-0.06,-0.16,0.33,119.12,-76.00,1.25,4.19,-1.25,-0.31,6,5
1772655385.916778,1048986,-0.69,-0.26,0.66,-44.75,-78.94,67.62,18.37,-33.13,-6.06,-0.09,-0.09,0.04,118.87,-76.00,1.44,3.69,2.37,-0.06,6,5
1772655385.957848,1049027,-0.52,0.06,0.45,-40.94,-78.44,68.56,13.56,-16.37,-7.75,-0.10,-0.09,0.00,119.12,-76.00,1.56,0.37,0.25,0.81,7,5
1772655385.998695,1049068,-0.34,0.14,0.27,-38.50,-78.12,69.31,11.56,-16.06,-5.50,-0.09,-0.04,0.02,119.00,-76.00,1.56,-0.75,-1.31,0.44,7,6
1772655386.039060,1049108,0.34,0.38,-0.08,-36.63,-77.75,70.00,19.37,-18.69,-3.00,-0.04,0.03,-0.05,118.81,-76.00,1.50,0.56,-1.25,-0.75,4,5
1772655386.077887,1049147,0.28,0.10,-0.09,-34.94,-77.12,70.94,28.25,-26.50,-0.75,0.04,0.14,0.06,118.62,-76.00,1.62,1.25,-1.12,-1.00,4,3
1772655386.117709,1049187,-0.08,-0.16,0.13,-33.75,-76.25,71.94,29.81,-25.00,2.19,-0.03,-0.01,-0.08,118.44,-76.00,1.62,-0.37,-0.75,-1.12,3,3
1772655386.158800,1049228,-0.34,-0.21,0.30,-33.00,-75.44,72.81,24.94,-23.31,0.44,-0.13,0.05,0.04,118.25,-75.94,1.75,1.25,-0.25,-2.44,3,3
1772655386.199360,1049269,-0.53,-0.38,0.22,-32.00,-74.75,73.69,17.31,-15.63,-2.94,-0.07,-0.06,0.07,118.00,-75.81,1.87,0.56,-0.31,-3.00,3,3
1772655386.239558,1049309,-0.11,-0.27,0.03,-31.00,-74.50,74.31,7.87,-4.75,-1.31,0.06,-0.09,0.10,117.56,-75.69,2.12,3.69,0.37,-4.37,2,2
1772655386.278553,1049348,-0.02,-0.05,-0.08,-30.69,-74.44,74.56,2.87,-3.37,-3.00,0.00,-0.11,0.12,117.31,-75.56,2.37,1.50,1.87,-2.44,2,2
1772655386.318266,1049388,0.09,-0.05,-0.08,-30.19,-74.37,74.75,1.19,-4.31,-2.25,0.05,-0.13,-0.09,117.31,-75.44,2.50,1.75,1.31,-3.12,1,2
1772655386.359567,1049429,-0.25,-0.05,0.13,-29.87,-74.25,74.81,-0.62,-2.62,2.19,0.00,-0.16,0.02,117.00,-75.37,2.69,-0.31,-1.81,-1.12,2,6
1772655386.399947,1049469,-0.67,-0.12,0.39,-30.12,-74.19,74.69,-3.69,4.69,2.75,-0.05,-0.04,0.05,116.81,-75.31,2.75,-0.13,0.62,-1.19,2,6
1772655386.440445,1049510,-1.04,-0.54,0.64,-30.75,-74.44,74.37,-14.63,20.06,-0.50,-0.01,-0.01,0.11,116.75,-75.25,2.81,-1.19,0.69,-2.12,2,6
1772655386.479833,1049549,-1.52,-0.85,1.02,-31.81,-75.50,73.62,-38.56,47.00,-6.12,0.00,-0.17,0.18,116.75,-75.25,2.69,-4.69,0.06,-0.19,2,7
1772655386.518978,1049588,-2.44,-0.53,1.60,-34.00,-77.50,72.19,-56.88,69.06,-8.50,-0.02,-0.06,0.15,116.81,-75.25,2.56,-4.94,0.00,1.25,2,6
1772655386.560205,1049630,0.47,-0.08,0.86,-41.75,-80.56,69.94,-70.50,99.44,-7.94,-0.08,-0.12,-0.07,117.31,-75.31,2.12,-6.37,1.56,3.75,3,6
1772655386.600758,1049670,1.99,0.58,-0.32,-5.69,-83.12,67.44,-62.69,77.19,-6.69,0.04,0.05,-0.38,118.06,-75.44,1.81,-3.37,2.62,3.00,3,6
1772655386.640996,1049710,1.98,0.74,-0.90,-5.37,-84.37,65.44,-41.81,40.38,-2.06,0.08,0.09,-0.28,118.56,-75.50,1.56,-3.44,-0.94,2.44,4,7
1772655386.680037,1049750,0.96,0.43,-0.69,-5.37,-84.50,64.00,-23.37,13.44,5.31,0.02,0.01,-0.05,118.62,-75.56,1.37,-0.81,-1.62,1.37,4,7
1772655386.719365,1049789,0.29,0.25,-0.25,-5.62,-84.31,62.94,-16.00,5.50,7.75,0.02,0.02,0.04,118.50,-75.62,1.31,-0.19,-1.81,0.94,5,7
1772655386.760446,1049830,0.22,0.33,-0.08,-5.87,-84.06,62.13,-11.88,8.19,3.25,0.00,-0.05,0.08,118.31,-75.69,1.31,0.25,-0.31,0.31,4,3
1772655386.801312,1049871,0.12,0.15,-0.07,-173.94,-83.94,61.56,-7.62,6.44,2.12,-0.04,-0.03,0.02,118.31,-75.69,1.31,-1.56,-0.50,-0.44,4,3
1772655386.841652,1049911,0.08,0.06,-0.03,-173.81,-83.81,61.19,-4.69,2.19,3.81,-0.08,-0.12,0.02,118.31,-75.62,1.25,-1.44,0.19,-1.44,4,3
1772655386.880772,1049950,-0.04,0.02,0.09,-173.62,-83.62,60.88,-1.69,1.94,5.12,-0.04,-0.08,0.00,118.31,-75.62,1.25,-1.87,0.13,-0.44,4,3
1772655386.920237,1049990,0.09,-0.07,0.07,-173.37,-83.37,60.56,-0.81,3.81,6.44,0.01,-0.10,-0.02,118.37,-75.62,1.19,-0.88,0.31,0.62,4,2
1772655386.961435,1050031,0.08,-0.39,0.08,-96.06,-83.12,60.25,-5.19,4.50,9.88,0.03,-0.25,-0.10,118.50,-75.62,1.12,-1.19,0.50,1.75,4,2
1772655387.002130,1050072,0.13,-0.51,-0.18,-96.62,-82.75,59.56,-10.69,1.00,10.00,-0.09,-0.22,-0.05,118.81,-75.62,1.06,-0.37,1.06,2.12,3,2
1772655387.042502,1050112,0.03,0.13,-0.02,-96.12,-82.37,58.81,-7.69,-1.12,10.13,-0.13,0.17,0.06,118.87,-75.62,1.06,-0.19,-0.62,-0.75,6,2
1772655387.081688,1050151,-0.11,0.65,0.22,-95.37,-82.00,58.19,-0.50,0.25,13.75,-0.10,0.39,0.10,118.62,-75.56,1.06,-2.50,-1.25,-3.19,6,3
1772655387.120905,1050191,0.08,0.68,0.11,-95.62,-81.44,57.81,7.19,2.87,11.88,0.01,0.04,0.14,118.37,-75.50,1.12,-1.00,-0.75,-3.75,5,3
1772655387.162127,1050232,0.13,0.17,0.00,-96.75,-81.06,57.81,12.19,5.56,5.50,0.00,-0.05,0.13,118.06,-75.37,1.19,-0.94,-0.13,-1.56,5,3
1772655387.202430,1050272,0.34,-0.20,-0.09,-98.12,-80.87,58.06,4.87,2.69,1.50,0.07,-0.15,0.03,118.00,-75.37,1.25,1.06,0.81,0.44,5,3
1772655387.243231,1050313,0.03,0.02,-0.14,-98.62,-80.87,58.13,-0.50,0.06,-1.06,-0.13,-0.13,-0.03,118.12,-75.37,1.31,2.31,0.62,1.69,6,3
1772655387.282311,1050352,-0.13,0.10,0.00,-98.75,-80.94,58.19,-0.31,0.94,-1.31,-0.15,-0.06,0.12,118.06,-75.44,1.31,1.56,-1.19,1.62,6,4
1772655387.321412,1050391,-0.06,0.16,0.11,-99.37,-80.87,58.19,1.00,4.62,0.56,-0.06,0.08,0.15,117.94,-75.50,1.31,3.12,0.62,1.50,6,4
1772655387.362697,1050432,0.13,0.06,0.02,-100.87,-80.81,58.25,3.94,6.06,-0.69,0.08,0.00,0.00,118.19,-75.56,1.50,4.56,3.00,2.19,6,4
1772655387.403405,1050473,0.32,-0.10,-0.06,-102.37,-80.81,58.38,2.50,4.12,-2.25,0.20,0.00,-0.17,118.69,-75.56,1.56,2.94,3.25,2.75,7,4
1772655387.443921,1050513,-0.07,-0.07,0.02,-103.44,-80.94,58.56,1.69,1.75,-3.94,-0.02,-0.08,-0.19,119.12,-75.56,1.56,0.25,0.25,1.69,3,4
1772655387.483178,1050553,-0.38,-0.09,0.08,-104.12,-81.06,58.81,0.75,1.31,-4.31,-0.29,-0.19,0.14,119.19,-75.62,1.44,-4.56,-2.19,0.31,3,2
1772655387.522874,1050592,-0.29,-0.15,0.16,-104.81,-81.19,58.88,-1.44,2.94,-2.25,-0.23,-0.04,0.19,119.00,-75.69,1.25,-5.56,-3.62,-1.69,3,2
1772655387.563997,1050633,0.15,0.19,-0.05,-106.06,-81.19,58.81,-1.31,6.87,-0.69,-0.04,0.11,0.22,118.31,-75.62,1.12,-0.56,-1.44,-3.19,3,2
1772655387.604296,1050674,0.67,0.31,-0.35,-107.69,-81.12,58.88,4.62,3.62,-2.25,0.20,0.07,0.08,118.19,-75.56,1.25,1.44,2.75,-1.62,2,2
1772655387.644719,1050714,0.60,0.17,-0.34,-108.31,-81.25,59.25,8.94,-3.75,-3.06,0.22,-0.03,-0.27,118.44,-75.50,1.37,0.94,1.87,0.19,2,2
1772655387.684091,1050753,0.05,0.01,-0.18,-107.81,-81.37,59.75,11.06,-7.62,-2.75,-0.13,-0.23,-0.07,118.50,-75.56,1.25,-2.19,-1.19,1.50,2,1
1772655387.723569,1050793,-0.29,-0.08,0.11,-106.31,-81.56,60.31,9.44,-9.38,-3.00,-0.28,-0.09,0.15,118.50,-75.56,1.12,-2.75,-1.87,0.37,4,2
1772655387.764804,1050834,-0.31,0.00,0.23,-104.75,-81.75,60.75,6.44,-4.12,-0.50,-0.11,0.11,0.25,118.31,-75.62,1.06,0.37,-0.62,0.25,4,4
1772655387.804972,1050875,0.26,0.18,-0.02,-104.50,-81.75,61.06,9.25,0.06,-0.31,0.13,0.11,0.11,118.44,-75.62,1.19,4.69,3.75,1.37,4,4
1772655387.845249,1050915,0.95,0.23,-0.46,-104.75,-81.81,61.50,13.38,-4.81,-1.94,0.22,0.00,-0.17,119.00,-75.62,1.31,4.00,4.31,2.31,4,4
1772655387.884392,1050954,1.05,0.31,-0.53,-102.94,-82.00,62.31,19.50,-19.50,-4.00,0.05,-0.06,-0.42,119.50,-75.62,1.37,1.25,1.94,2.19,4,5
1772655387.924039,1050993,0.88,0.39,-0.51,-97.94,-82.12,63.31,25.50,-35.44,-6.25,-0.23,-0.10,-0.18,119.62,-75.69,1.31,-2.50,0.00,1.06,5,5
1772655387.965362,1051035,0.48,0.01,-0.09,-86.31,-82.37,64.94,34.75,-60.56,-5.69,-0.18,0.03,0.09,119.44,-75.75,1.06,-4.50,-4.25,-1.12,4,5
1772655388.005981,1051075,-0.20,-0.19,0.29,-70.81,-82.00,66.69,36.88,-56.13,1.81,-0.01,0.11,0.42,118.81,-75.75,1.00,-0.06,-3.37,-2.00,5,5
1772655388.045922,1051116,-0.24,-0.32,0.19,-60.13,-81.00,68.12,33.44,-46.25,5.62,0.11,0.01,0.28,118.62,-75.69,1.19,3.62,2.75,-0.56,5,5
1772655388.085211,1051155,-0.27,-0.27,0.29,-53.88,-79.94,69.19,27.44,-34.31,4.19,0.17,-0.04,-0.06,119.00,-75.62,1.44,4.94,4.56,0.44,5,6
1772655388.124836,1051194,-0.22,-0.21,0.36,-50.06,-79.12,70.06,22.56,-28.69,1.81,-0.07,-0.12,-0.22,119.19,-75.62,1.50,0.81,0.81,1.44,2,6
1772655388.166356,1051236,-0.53,-0.06,0.44,-46.44,-78.37,70.87,15.19,-27.50,-1.69,-0.27,-0.16,0.04,119.31,-75.62,1.44,-1.81,-0.50,-0.13,2,4
1772655388.206768,1051276,-0.44,-0.05,0.35,-43.44,-77.69,71.50,11.88,-22.62,0.06,-0.11,0.00,0.20,119.12,-75.62,1.31,-2.94,-2.12,-1.12,2,4
1772655388.246653,1051316,-0.27,0.02,0.15,-41.38,-77.12,71.94,8.88,-14.63,0.44,0.08,0.09,0.26,118.87,-75.62,1.37,3.12,1.00,-1.37,2,4
1772655388.285803,1051355,0.00,-0.10,0.02,-40.50,-76.81,72.25,6.12,-6.75,-0.75,0.14,-0.02,0.00,118.94,-75.62,1.56,3.12,2.25,1.81,2,3
1772655388.325495,1051395,0.31,-0.02,-0.07,-39.75,-76.62,72.50,2.44,-7.19,-2.87,0.07,-0.10,-0.26,119.31,-75.62,1.62,3.06,2.69,2.81,1,3
1772655388.367057,1051436,-0.12,0.00,0.22,-38.31,-76.50,72.75,-0.13,-10.13,-4.56,-0.19,-0.18,-0.26,119.50,-75.75,1.56,-0.62,-2.56,3.12,3,5
1772655388.407607,1051477,-0.63,-0.03,0.54,-36.75,-76.25,72.94,-0.50,-10.31,-2.31,-0.24,-0.12,0.15,119.25,-75.87,1.37,-1.31,-3.50,0.31,5,5
1772655388.447738,1051517,-0.61,-0.05,0.47,-36.00,-76.06,73.00,-2.12,-0.25,1.94,-0.06,0.00,0.20,118.94,-75.94,1.31,-0.88,-2.06,-0.25,5,5
1772655388.486516,1051556,-0.11,-0.10,0.16,-36.56,-76.12,72.81,-3.00,11.63,1.87,0.10,0.07,0.13,118.75,-75.94,1.31,1.56,0.81,0.75,5,5
1772655388.526022,1051596,-0.31,-0.14,0.08,-37.94,-76.56,72.56,-5.06,16.75,1.00,0.25,0.02,0.01,118.94,-76.00,1.31,1.50,1.31,2.31,5,4
1772655388.567270,1051637,-0.90,-0.15,0.50,-40.25,-77.31,72.19,-11.19,34.19,-0.94,0.02,0.04,0.00,119.25,-76.06,1.31,1.19,1.87,1.94,5,4
1772655388.607989,1051678,-1.43,0.08,1.13,-44.75,-78.56,71.62,-13.63,59.06,-5.00,-0.15,-0.15,0.06,119.69,-76.06,1.31,0.19,2.50,0.62,6,4
1772655388.648525,1051718,0.13,0.05,0.68,-53.25,-80.37,71.12,-13.31,64.50,-9.69,-0.23,-0.21,-0.15,120.00,-75.94,1.31,-3.25,1.50,-1.06,6,4
1772655388.687738,1051757,1.15,-0.15,-0.16,-64.25,-81.94,70.75,-13.88,49.50,-7.75,0.00,0.02,-0.20,120.06,-75.94,1.12,-4.37,-1.81,-1.00,7,4
1772655388.727228,1051797,1.28,-0.18,-0.65,-74.37,-82.69,70.25,-13.25,34.13,-3.56,0.16,0.11,-0.09,120.00,-75.94,1.06,-0.19,-0.81,-0.06,8,3
1772655388.768076,1051838,0.90,-0.10,-0.65,-80.56,-82.87,69.69,-11.31,14.06,1.31,0.20,0.09,-0.06,120.00,-75.94,1.06,1.62,0.50,1.06,7,2
1772655388.808752,1051878,0.37,-0.27,-0.31,-83.81,-82.94,69.25,-9.81,9.19,0.31,0.02,0.00,-0.15,120.06,-76.00,1.06,0.88,-0.69,1.50,5,2
1772655388.849385,1051919,-0.18,-0.28,-0.05,-86.06,-83.00,68.81,-12.63,7.69,-2.12,-0.20,-0.13,0.02,120.00,-76.06,1.00,-1.12,-1.50,0.44,5,2
1772655388.888582,1051958,-0.26,-0.55,0.09,-87.69,-83.06,68.31,-19.37,6.25,-1.37,-0.23,-0.10,0.14,119.69,-76.06,0.94,-2.00,-2.25,-1.62,4,2
1772655388.927796,1051997,-0.19,-0.45,0.25,-6.69,-83.25,67.50,-27.44,9.00,0.50,-0.05,0.00,0.22,119.31,-76.06,1.00,0.19,-1.31,-1.62,4,2
1772655388.968773,1052038,0.17,-0.01,-0.01,-173.25,-83.25,66.25,-32.50,15.13,1.12,0.16,-0.01,0.05,119.31,-76.06,1.06,1.56,2.69,0.94,4,2
1772655389.009273,1052079,0.05,0.12,0.07,-173.25,-83.19,64.94,-28.75,17.44,2.12,0.18,-0.02,-0.07,119.62,-76.06,1.06,0.00,0.94,2.06,3,2
1772655389.049879,1052119,0.02,0.17,0.19,-100.06,-82.94,63.69,-22.37,20.81,6.25,-0.06,-0.03,-0.09,119.81,-76.12,0.88,-3.31,-0.81,1.62,4,3
1772655389.089191,1052158,-0.05,0.26,0.04,-103.81,-82.50,62.56,-16.25,14.31,5.69,-0.23,-0.12,-0.07,119.87,-76.12,0.75,-4.12,-1.94,-0.25,5,4
1772655389.128652,1052198,0.18,0.21,-0.09,-105.62,-82.25,61.75,-13.13,6.69,2.44,-0.24,0.00,0.12,119.62,-76.19,0.56,-3.00,-3.31,-1.56,5,5
1772655389.169687,1052239,0.04,0.11,-0.05,-106.69,-82.06,61.19,-9.88,8.44,3.19,0.06,0.07,0.21,119.06,-76.19,0.56,0.44,-1.50,-1.19,4,5
1772655389.210190,1052280,0.57,0.12,-0.27,-108.56,-81.81,60.63,-6.87,9.50,4.00,0.20,-0.03,0.10,119.00,-76.19,0.69,2.75,2.37,0.00,4,5
1772655389.250602,1052320,0.42,0.12,-0.26,-109.94,-81.56,60.19,-5.00,5.25,3.06,0.09,-0.06,-0.24,119.31,-76.19,0.69,0.31,1.62,1.87,5,5
1772655389.290181,1052360,0.12,0.09,-0.13,-110.50,-81.44,59.88,-3.44,-0.50,0.62,-0.10,-0.23,-0.22,119.56,-76.25,0.62,-1.69,0.31,0.94,5,5
1772655389.329762,1052399,-0.20,0.05,0.08,-109.81,-81.44,59.75,-2.37,-3.87,-0.19,-0.20,-0.11,0.01,119.50,-76.19,0.56,-2.94,-2.25,-0.94,5,5
1772655389.370732,1052440,-0.28,0.01,0.23,-108.81,-81.50,59.69,-1.06,-1.25,2.06,-0.11,0.00,0.26,119.12,-76.19,0.50,-1.00,-1.69,-1.62,6,5
1772655389.410858,1052481,0.13,0.04,0.03,-108.62,-81.37,59.56,-0.94,3.31,2.50,0.09,0.04,0.15,119.00,-76.19,0.56,2.12,1.75,-0.13,7,5
1772655389.451235,1052521,0.38,0.02,-0.17,-109.31,-81.25,59.44,-1.25,3.62,0.88,0.17,-0.05,-0.06,119.25,-76.19,0.62,1.81,2.06,2.00,5,4
1772655389.490604,1052560,0.36,0.03,-0.16,-109.81,-81.25,59.31,-1.50,0.19,-0.25,0.06,-0.09,-0.23,119.62,-76.19,0.62,0.62,1.00,2.31,3,3
1772655389.530491,1052600,-0.12,0.08,-0.03,-109.44,-81.31,59.38,-0.25,-3.94,-3.19,-0.15,-0.17,-0.09,119.75,-76.25,0.56,-1.81,-0.94,0.88,3,3
1772655389.571738,1052641,-0.37,-0.11,0.17,-108.56,-81.50,59.56,0.19,-4.00,-2.12,-0.18,-0.08,0.18,119.44,-76.25,0.44,-1.94,-2.25,-1.50,3,3
1772655389.611715,1052682,-0.12,-0.06,0.16,-107.94,-81.56,59.56,0.13,1.19,1.87,0.01,0.03,0.22,119.19,-76.25,0.44,0.31,0.06,-1.19,3,3
1772655389.651917,1052722,0.46,0.00,-0.24,-108.31,-81.44,59.50,0.62,3.44,2.37,0.15,-0.02,0.05,119.25,-76.19,0.56,2.19,2.50,0.56,3,2
1772655389.691397,1052761,0.56,0.00,-0.28,-108.75,-81.37,59.38,-0.44,-0.13,0.69,0.12,-0.01,-0.16,119.62,-76.19,0.62,1.44,2.06,1.87,2,2
1772655389.731046,1052800,0.13,0.08,-0.06,-108.37,-81.37,59.44,-0.56,-3.50,-1.31,-0.05,-0.09,-0.17,120.00,-76.25,0.56,-0.69,0.00,2.00,2,2
1772655389.772288,1052842,-0.27,0.03,0.16,-107.44,-81.56,59.56,-0.25,-6.00,-4.56,-0.20,-0.13,0.01,120.06,-76.25,0.44,-2.19,-1.50,0.25,4,3
1772655389.813099,1052882,-0.44,-0.05,0.33,-106.37,-81.81,59.75,-0.06,-2.94,-3.00,-0.16,-0.01,0.23,119.81,-76.25,0.37,-1.62,-1.44,-1.12,4,4
1772655389.852678,1052923,0.05,0.02,0.11,-106.31,-81.87,59.81,0.94,3.56,-0.06,0.02,0.03,0.20,119.62,-76.25,0.44,1.69,1.69,-0.19,4,5
1772655389.892100,1052962,0.69,0.18,-0.39,-107.37,-81.81,59.88,2.00,2.25,-0.44,0.14,0.05,-0.04,120.06,-76.25,0.50,2.50,3.56,1.75,5,5
1772655389.931493,1053001,0.78,0.18,-0.52,-107.44,-81.87,60.06,2.50,-4.12,-4.06,0.12,-0.08,-0.20,120.37,-76.25,0.56,2.12,1.62,2.25,5,5
1772655389.972969,1053042,-0.06,0.02,0.00,-105.87,-82.25,60.50,4.50,-10.44,-8.38,-0.11,-0.20,0.03,120.62,-76.37,0.50,-0.81,-1.69,2.62,5,5
1772655390.013591,1053083,-0.60,-0.27,0.38,-103.75,-82.62,61.06,5.19,-8.38,-5.44,-0.19,-0.19,0.04,120.62,-76.37,0.44,-0.88,0.44,0.31,5,4
1772655390.053917,1053123,-0.48,-0.21,0.40,-102.44,-82.81,61.38,3.62,-1.06,0.13,-0.08,0.00,0.13,120.62,-76.37,0.44,-0.44,-0.31,-0.37,5,5
1772655390.092511,1053162,0.16,0.00,-0.05,-102.62,-82.81,61.50,2.00,3.50,1.75,0.07,0.00,0.02,120.62,-76.37,0.50,2.25,1.62,-0.44,6,5
1772655390.132222,1053202,0.73,0.27,-0.51,-103.50,-82.75,61.50,2.69,1.44,0.44,0.10,-0.02,-0.17,120.81,-76.31,0.56,2.19,2.50,0.75,6,5
1772655390.173659,1053243,1.11,0.55,-0.79,-102.31,-82.81,61.81,11.13,-14.69,-3.56,0.03,0.03,-0.28,121.25,-76.25,0.69,1.50,1.37,0.75,3,4
1772655390.214411,1053284,1.46,0.76,-0.79,-173.19,-83.12,62.69,23.50,-37.69,-6.31,-0.05,0.05,-0.14,121.44,-76.25,0.75,1.50,0.00,-0.50,3,3
1772655390.254764,1053324,0.90,0.29,-0.38,-6.50,-83.37,64.31,35.69,-60.81,-7.69,-0.07,-0.04,0.06,121.06,-76.25,0.81,0.94,-2.44,-1.56,3,2
1772655390.293983,1053363,-0.48,-0.32,0.35,-63.13,-82.87,66.19,37.00,-59.25,-1.94,-0.05,-0.04,0.34,120.44,-76.25,0.88,1.25,-3.94,-1.81,3,2
1772655390.333190,1053403,-0.75,-0.38,0.49,-51.19,-81.69,67.62,29.25,-50.50,1.37,-0.04,-0.04,0.28,120.06,-76.19,1.06,4.12,0.75,-1.94,3,2
1772655390.374503,1053444,-0.81,-0.26,0.53,-45.00,-80.69,68.56,19.56,-24.50,-0.50,0.06,-0.03,0.08,119.94,-76.12,1.37,3.50,2.37,-0.06,2,2
1772655390.414898,1053484,-0.16,0.04,0.19,-42.25,-80.19,69.25,12.44,-15.06,-4.00,-0.01,-0.06,-0.12,120.25,-76.12,1.44,1.81,3.12,0.94,2,1
1772655390.455213,1053525,0.15,0.17,0.03,-39.38,-79.87,69.94,11.06,-21.25,-8.19,-0.06,-0.06,-0.12,120.62,-76.06,1.50,0.25,1.19,0.62,2,1
1772655390.494453,1053564,0.08,-0.10,0.04,-35.63,-79.37,70.69,11.31,-23.56,-5.94,-0.09,-0.02,-0.02,120.69,-76.12,1.37,-1.94,-1.00,0.81,4,2
1772655390.533946,1053603,-0.34,-0.18,0.12,-32.63,-78.69,71.31,10.31,-24.56,-2.37,0.01,-0.01,0.04,120.62,-76.12,1.31,-0.44,-1.50,0.88,4,4
1772655390.574785,1053645,-0.43,-0.09,0.21,-31.00,-78.00,71.69,9.19,-13.50,0.06,0.02,0.00,0.07,120.44,-76.19,1.31,1.62,-0.94,0.81,4,4
1772655390.615716,1053685,-0.22,-0.07,0.16,-30.25,-77.69,72.00,6.19,-7.19,-0.19,-0.04,-0.07,0.05,120.44,-76.25,1.31,0.88,-0.13,1.12,4,5
1772655390.656108,1053725,-0.26,-0.14,0.13,-29.81,-77.44,72.19,2.06,-3.75,0.69,-0.09,-0.11,0.07,120.31,-76.25,1.31,-1.06,-1.25,-0.13,4,5
1772655390.695117,1053765,-0.11,0.06,0.05,-29.75,-77.31,72.19,-0.19,-2.19,1.25,0.01,-0.11,0.07,120.25,-76.25,1.31,-0.50,0.81,-1.25,4,5
1772655390.734445,1053804,0.09,0.04,0.01,-29.75,-77.25,72.12,-0.37,-2.00,1.31,0.03,-0.03,0.04,120.25,-76.19,1.31,-0.44,0.62,0.00,5,5
1772655390.775691,1053845,0.15,0.16,-0.15,-29.81,-77.12,72.06,-0.19,-1.81,1.75,0.10,0.02,0.04,120.31,-76.19,1.31,0.37,1.25,1.06,5,5
1772655390.816218,1053886,0.40,0.20,-0.30,-30.00,-77.06,72.00,0.37,-4.19,-0.25,0.17,0.00,-0.18,120.69,-76.25,1.31,0.75,1.50,2.19,6,5
1772655390.856948,1053926,0.18,0.15,-0.04,-29.62,-76.87,72.00,0.81,-5.75,-2.56,0.04,-0.08,-0.17,121.06,-76.25,1.19,-0.69,-0.31,2.25,6,5
1772655390.896106,1053965,-0.30,0.00,0.19,-28.69,-76.75,72.19,1.06,-8.50,-3.62,-0.15,-0.13,0.03,121.06,-76.31,1.06,-1.94,-2.37,0.75,4,4
1772655390.935801,1054005,-0.58,-0.03,0.23,-27.62,-76.50,72.37,-0.06,-6.31,-2.31,-0.19,-0.05,0.18,120.94,-76.37,1.00,-0.56,-0.62,-0.56,3,2
1772655390.976693,1054046,-0.48,0.00,0.13,-27.31,-76.44,72.37,-1.37,4.00,0.88,0.02,-0.01,0.21,120.62,-76.37,1.00,0.06,-0.37,0.31,3,2
1772655391.017221,1054087,-0.16,-0.15,-0.02,-28.06,-76.69,72.25,-3.37,13.19,1.75,0.12,0.03,0.03,120.75,-76.37,1.06,1.81,2.37,0.75,3,2
1772655391.057402,1054127,-1.02,-0.46,0.41,-29.31,-77.25,71.94,-12.19,25.50,0.25,0.06,0.04,-0.02,121.06,-76.37,1.12,1.19,1.44,1.56,3,2
1772655391.096994,1054166,-2.11,-0.61,1.33,-31.69,-78.50,71.25,-28.31,52.50,-3.62,-0.07,-0.06,0.17,121.25,-76.44,1.06,-0.06,0.25,0.37,3,2
1772655391.136246,1054206,-0.38,-0.31,0.94,-37.06,-80.81,70.12,-42.75,73.56,-10.81,-0.24,-0.28,0.01,121.19,-76.37,1.12,-0.31,1.94,0.13,2,2
1772655391.177628,1054247,0.95,0.15,-0.10,-4.81,-83.25,68.87,-40.81,59.44,-11.25,-0.15,-0.10,-0.15,121.44,-76.37,1.06,-3.44,0.37,0.13,1,3
1772655391.217975,1054287,1.37,0.29,-0.72,-4.44,-84.69,67.69,-29.50,36.94,-1.44,0.09,0.02,-0.14,121.50,-76.37,0.88,-3.44,-2.37,0.19,3,7
1772655391.258217,1054328,1.28,0.45,-0.86,-4.44,-85.12,66.62,-15.69,18.50,7.37,0.19,0.21,0.01,121.25,-76.44,0.69,-1.56,-2.50,0.56,3,7
1772655391.297399,1054367,0.79,0.24,-0.63,-4.75,-85.00,65.87,-4.25,6.87,7.37,0.14,0.08,-0.13,121.31,-76.44,0.69,0.00,-0.13,0.69,3,7
1772655391.336953,1054406,0.05,0.11,-0.30,-5.00,-84.81,65.50,-1.75,3.62,4.44,-0.14,-0.10,0.03,121.37,-76.44,0.62,-0.06,0.69,-0.19,3,6
1772655391.378262,1054448,-0.21,0.00,-0.08,-5.12,-84.75,65.31,-2.75,1.75,4.06,-0.23,-0.09,0.05,121.37,-76.44,0.69,-1.31,-0.50,-1.44,4,6
1772655391.418602,1054488,-0.15,0.07,0.08,-5.31,-84.56,65.00,-1.56,4.25,6.19,-0.07,0.03,0.11,121.12,-76.44,0.69,0.81,-0.37,-0.44,4,6
1772655391.458772,1054529,0.02,0.07,0.09,-5.56,-84.31,64.69,1.94,7.25,6.56,0.16,0.00,-0.05,121.25,-76.37,0.81,2.81,2.00,0.69,4,6
1772655391.497834,1054568,0.28,0.07,-0.01,-5.81,-84.12,64.56,4.81,5.56,5.50,0.12,0.00,-0.21,121.50,-76.37,0.88,1.31,0.62,0.69,5,6
1772655391.538127,1054607,0.05,0.00,-0.07,-6.00,-83.94,64.56,6.44,3.06,4.69,-0.10,-0.10,-0.07,121.50,-76.37,0.81,-1.94,-0.44,-0.44,5,6
1772655391.579090,1054648,-0.49,-0.23,0.05,-6.12,-83.75,64.62,3.87,-0.25,2.56,-0.29,-0.15,0.00,121.31,-76.31,0.81,-2.69,-3.19,-2.31,6,6
1772655391.619334,1054689,-0.58,-0.28,0.23,-6.25,-83.69,64.62,0.69,5.00,2.75,-0.13,0.08,0.29,120.56,-76.31,0.81,0.25,-2.19,-3.87,3,2
1772655391.659398,1054729,0.01,-0.12,0.00,-173.56,-83.56,64.50,-0.88,12.06,3.75,0.12,0.10,0.13,120.19,-76.19,1.00,2.31,0.75,-2.69,3,2
1772655391.698763,1054768,0.75,-0.03,-0.50,-173.44,-83.44,64.25,-0.88,11.38,3.00,0.26,-0.01,-0.05,120.19,-76.12,1.19,2.62,3.00,-2.19,4,2
1772655391.738564,1054808,0.53,0.02,-0.47,-173.37,-83.31,64.12,-0.81,3.44,1.37,0.14,-0.11,-0.38,120.19,-76.06,1.31,-1.12,-0.81,-0.37,4,2
1772655391.779949,1054849,-0.03,-0.05,-0.26,-173.31,-83.31,64.06,-0.69,-1.81,0.75,-0.21,-0.24,0.02,119.94,-76.12,1.12,-4.62,-3.00,-0.25,3,3
1772655391.820424,1054890,-0.33,-0.07,0.07,-173.31,-83.25,64.00,-3.44,-0.88,1.44,-0.27,-0.04,0.16,119.56,-76.12,0.94,-3.75,-3.37,-2.19,3,3
1772655391.860567,1054930,-0.06,0.10,0.05,-173.25,-83.19,63.75,-3.50,3.06,2.44,-0.03,0.09,0.26,119.06,-76.12,0.94,0.56,0.06,-1.00,3,2
1772655391.899567,1054969,0.34,0.09,-0.15,-98.06,-83.06,63.56,-1.37,5.00,1.87,0.15,0.01,0.04,119.25,-76.06,1.06,3.56,2.81,0.94,4,3
1772655391.938933,1055009,0.53,0.02,-0.29,-99.44,-82.94,63.38,-0.88,4.50,2.62,0.21,-0.03,-0.27,119.56,-76.12,1.12,2.12,1.87,2.56,5,4
1772655391.980664,1055050,0.13,0.08,-0.20,-100.19,-82.87,63.31,0.00,-1.56,-0.25,-0.07,-0.17,-0.21,119.94,-76.19,1.06,-0.88,-0.31,2.06,4,4
1772655392.021144,1055090,-0.34,-0.04,0.00,-99.37,-82.94,63.38,-0.13,-4.12,-2.31,-0.25,-0.14,0.09,119.81,-76.25,0.88,-3.44,-2.69,-0.31,4,4
1772655392.061713,1055131,-0.34,-0.10,0.15,-98.25,-83.00,63.44,-1.25,-1.69,-0.37,-0.12,0.04,0.26,119.44,-76.25,0.81,-1.00,-2.00,-1.87,4,4
1772655392.100186,1055170,0.03,0.03,-0.05,-98.44,-83.00,63.38,-0.44,3.56,1.25,0.09,0.02,0.18,119.25,-76.19,0.94,2.25,1.75,-0.75,4,3
1772655392.139562,1055209,0.65,0.00,-0.47,-99.56,-82.94,63.31,1.06,3.56,0.75,0.19,-0.06,-0.12,119.37,-76.19,1.06,2.44,3.19,0.62,4,3
1772655392.181098,1055251,0.59,0.13,-0.46,-99.37,-82.94,63.38,1.81,-5.56,-0.25,0.09,-0.06,-0.31,119.75,-76.12,1.12,0.00,0.69,0.94,5,3
1772655392.221953,1055291,0.14,0.32,-0.29,-97.19,-83.00,63.56,7.37,-13.69,-2.25,-0.16,-0.20,-0.10,119.75,-76.12,1.06,-1.62,-1.37,0.13,6,3
1772655392.262371,1055332,0.00,0.25,-0.04,-173.12,-83.12,64.12,14.38,-19.62,-0.25,-0.19,-0.03,0.08,119.37,-76.12,1.00,-2.25,-2.94,-2.00,6,3
1772655392.301279,1055371,0.65,0.37,-0.32,-86.12,-83.06,64.81,20.87,-26.44,2.19,-0.01,0.00,0.19,119.00,-76.12,1.06,1.25,-0.19,-2.25,5,2
1772655392.340327,1055410,1.01,0.27,-0.50,-77.69,-82.81,65.81,28.31,-35.38,2.06,0.08,0.04,0.06,118.87,-76.06,1.19,3.56,1.62,-0.62,4,1
1772655392.381769,1055451,0.15,-0.08,-0.28,-67.44,-82.19,67.00,31.37,-44.75,7.12,0.10,-0.01,-0.04,119.00,-76.06,1.31,2.37,1.25,1.25,4,1
1772655392.422994,1055492,-0.42,-0.31,0.06,-59.44,-81.19,67.94,26.06,-36.00,7.19,-0.07,-0.08,0.02,119.00,-76.06,1.44,2.19,0.44,1.06,4,1
1772655392.462954,1055532,-0.30,-0.23,0.21,-54.44,-80.31,68.69,17.44,-28.19,2.00,-0.12,-0.03,-0.03,119.06,-76.12,1.44,0.50,0.25,0.75,3,1
1772655392.502021,1055571,-0.67,-0.26,0.44,-50.50,-79.69,69.31,8.00,-20.69,-2.44,-0.05,-0.08,0.10,119.06,-76.12,1.44,0.19,-0.62,-0.56,3,1
1772655392.541814,1055611,-0.52,-0.02,0.27,-47.50,-79.31,69.69,3.00,-15.25,-2.81,-0.01,-0.04,0.18,118.94,-76.06,1.44,0.19,-0.69,-1.62,3,1
1772655392.582673,1055652,0.00,0.01,-0.08,-45.69,-79.12,69.87,3.19,-6.06,-1.75,0.00,-0.03,0.12,118.69,-76.00,1.50,-0.06,1.06,-0.81,2,1
1772655392.623200,1055693,0.22,-0.06,-0.33,-45.00,-79.00,70.06,3.62,-4.12,0.62,0.03,-0.04,-0.04,118.87,-76.00,1.50,-0.81,0.81,0.62,5,2
1772655392.663597,1055733,0.22,0.08,-0.39,-44.63,-78.87,70.19,2.62,-8.56,0.75,-0.01,-0.02,-0.06,119.06,-76.00,1.50,0.62,1.00,0.69,4,3
1772655392.703005,1055772,0.00,0.13,-0.05,-43.69,-78.62,70.31,2.94,-10.25,-0.44,-0.03,-0.01,-0.06,119.12,-76.00,1.50,0.56,-0.37,0.37,4,3
1772655392.742102,1055812,-0.23,0.03,0.10,-42.50,-78.37,70.44,3.31,-8.75,-0.62,-0.05,-0.03,0.04,119.12,-76.00,1.50,0.06,0.50,-0.50,4,3
1772655392.783287,1055853,-0.21,-0.05,0.06,-41.88,-78.19,70.62,3.31,-3.06,0.31,0.00,-0.04,0.02,119.19,-76.00,1.56,-0.06,0.69,-0.50,4,3
1772655392.824107,1055893,-0.02,0.03,-0.13,-41.81,-78.12,70.69,2.69,-0.81,0.69,-0.03,0.00,0.04,119.31,-75.94,1.56,0.81,2.06,-0.44,4,3
1772655392.864127,1055934,0.18,0.08,-0.22,-41.88,-78.06,70.81,3.62,-2.62,0.75,0.00,-0.10,-0.12,119.56,-75.87,1.69,1.25,2.00,-0.06,4,3
1772655392.903599,1055973,0.28,0.27,-0.21,-42.00,-77.94,70.87,6.69,-6.81,0.69,0.00,-0.02,-0.10,119.62,-75.87,1.69,-0.56,-1.31,0.94,5,4
1772655392.942804,1056012,0.25,0.25,-0.17,-41.81,-77.62,71.12,10.50,-10.75,0.62,0.00,0.00,-0.02,119.50,-75.94,1.62,0.00,-1.00,0.31,6,3
1772655392.984127,1056054,0.02,-0.07,-0.09,-41.13,-77.25,71.50,12.69,-12.56,1.25,-0.02,0.02,0.02,119.44,-75.94,1.62,-0.13,-0.75,-0.37,7,4
1772655393.024873,1056094,0.00,-0.04,-0.09,-40.38,-76.87,71.94,9.94,-12.13,0.62,-0.04,-0.05,0.10,119.31,-75.87,1.69,1.12,-0.50,-1.00,3,3
1772655393.065292,1056135,-0.10,0.01,-0.05,-39.44,-76.56,72.31,8.50,-10.63,-1.37,-0.02,-0.01,0.08,119.19,-75.87,1.69,0.19,-1.00,-0.50,3,2
1772655393.104283,1056174,-0.07,-0.06,-0.06,-38.56,-76.31,72.69,7.75,-8.94,-2.50,-0.05,0.03,0.06,119.12,-75.94,1.69,-1.31,-0.44,0.37,4,2
1772655393.143980,1056213,-0.06,-0.14,-0.04,-37.75,-76.19,73.00,5.81,-6.25,-2.50,0.03,-0.13,0.00,119.12,-75.87,1.69,0.37,1.12,-0.94,4,2
1772655393.184997,1056254,-0.11,-0.18,-0.07,-37.06,-76.06,73.31,2.56,-4.56,-1.12,-0.08,0.01,0.03,119.19,-75.94,1.56,-1.87,-0.44,0.37,4,2
1772655393.225368,1056295,-0.08,-0.05,0.00,-36.63,-75.94,73.37,-0.56,-4.87,1.69,-0.04,0.01,0.02,119.19,-75.87,1.75,3.19,0.94,-0.81,3,2
1772655393.265803,1056335,-0.25,0.07,0.07,-36.44,-75.81,73.31,-0.69,-1.31,1.50,-0.06,-0.16,0.01,119.25,-75.81,1.81,2.00,1.00,0.62,3,2
1772655393.306657,1056376,-0.14,0.07,-0.05,-36.56,-75.75,73.25,-1.31,0.81,0.44,-0.09,-0.06,0.10,119.19,-75.81,1.94,2.69,-0.06,-0.69,3,2
1772655393.345582,1056415,-0.01,0.03,-0.16,-36.56,-75.81,73.19,-2.81,0.31,-0.19,-0.08,-0.15,0.05,119.19,-75.75,2.12,1.62,2.50,0.13,3,5
1772655393.386362,1056456,0.08,0.11,-0.19,-36.63,-75.81,73.12,-2.12,-1.12,-0.31,0.00,0.11,-0.12,119.25,-75.75,2.12,1.56,0.37,-1.44,3,5
1772655393.426710,1056496,0.05,0.04,0.00,-36.44,-75.75,73.06,-0.13,-1.94,-0.94,0.00,-0.12,-0.22,119.19,-75.69,2.31,0.69,0.44,-0.81,3,5
1772655393.466962,1056536,-0.17,-0.13,0.18,-36.19,-75.69,73.12,0.37,-1.87,0.00,-0.01,-0.05,0.07,118.94,-75.75,2.19,-1.81,-2.75,-0.13,3,5
1772655393.506113,1056576,-0.40,-0.08,0.19,-36.19,-75.69,73.12,-0.50,4.37,1.50,0.01,-0.05,0.02,118.81,-75.81,2.12,-0.56,-0.44,1.19,3,5
1772655393.545304,1056615,-0.45,-0.14,0.21,-37.00,-75.87,73.00,-0.94,10.38,1.37,0.17,-0.17,0.12,118.87,-75.87,1.87,-5.56,-3.12,4.81,3,5
1772655393.586825,1056656,-0.89,-0.42,0.40,-38.63,-76.37,72.75,-9.56,28.75,3.56,-0.02,-0.03,0.07,118.87,-76.12,1.44,-5.44,-2.44,4.19,3,6
1772655393.627102,1056697,-1.73,-0.36,1.10,-42.81,-77.44,71.94,-21.62,58.19,3.12,0.00,-0.02,0.12,118.81,-76.31,1.12,-3.31,-4.62,3.69,4,6
1772655393.667537,1056737,-0.22,-0.09,1.10,-51.31,-79.12,70.69,-31.12,74.62,-1.12,-0.05,0.04,0.04,118.62,-76.50,0.88,0.37,-2.44,3.50,4,6
1772655393.706674,1056776,1.32,0.17,-0.08,-62.50,-80.75,69.31,-33.13,55.88,-5.06,0.03,0.04,-0.28,118.87,-76.56,0.94,5.06,4.50,-0.44,4,5
1772655393.745967,1056815,1.29,0.41,-0.74,-71.87,-81.62,68.19,-26.87,39.56,-6.37,0.06,-0.04,-0.38,119.12,-76.37,1.31,2.94,2.44,-2.31,3,3
1772655393.787576,1056857,0.86,0.17,-0.91,-77.62,-82.19,67.56,-15.38,16.00,-6.62,0.06,-0.04,-0.09,118.81,-76.31,1.37,-1.12,-5.12,-2.19,3,2
1772655393.828020,1056897,0.37,-0.19,-0.60,-80.31,-82.50,67.25,-10.00,6.87,-4.25,-0.05,-0.05,-0.02,118.00,-76.31,1.44,-0.13,-2.50,-3.37,3,2
1772655393.868616,1056938,0.01,-0.25,-0.22,-81.81,-82.62,66.94,-11.44,6.56,-0.56,-0.11,-0.01,0.06,117.12,-76.31,1.37,-3.00,-7.94,-1.06,3,2
1772655393.907813,1056977,0.02,-0.06,-0.05,-83.37,-82.69,66.44,-13.25,5.81,0.88,-0.05,-0.11,0.10,116.19,-76.37,1.31,-0.75,-5.87,-0.62,3,2
1772655393.947060,1057016,-0.09,-0.03,0.02,-84.75,-82.62,65.87,-12.06,6.25,1.94,-0.05,-0.09,-0.07,115.31,-76.50,1.12,-3.12,-7.19,-0.25,2,2
1772655393.988166,1057057,-0.12,-0.05,0.13,-86.50,-82.56,65.25,-12.38,8.31,2.69,-0.01,-0.01,0.06,114.12,-76.56,1.06,-1.75,-6.56,-1.94,2,1
1772655394.028588,1057098,0.00,-0.10,0.11,-88.75,-82.50,64.62,-13.81,11.00,1.37,0.03,-0.12,0.06,113.31,-76.62,0.88,-5.00,-6.06,-0.44,1,1
1772655394.069024,1057138,0.15,-0.08,-0.04,-91.37,-82.50,64.00,-16.00,10.88,-0.19,0.00,-0.04,0.07,112.56,-76.75,0.62,-5.31,-6.19,-0.25,4,2
1772655394.108130,1057177,0.14,0.00,-0.12,-93.94,-82.44,63.31,-16.87,10.81,-0.31,-0.02,-0.03,0.12,111.87,-76.81,0.31,-5.06,-4.56,0.69,4,3
1772655394.147036,1057217,0.18,0.11,-0.14,-96.56,-82.44,62.63,-14.69,10.31,0.56,0.00,0.04,0.15,111.62,-76.87,0.13,-2.69,-0.56,1.06,4,3
1772655394.188342,1057258,0.20,0.05,-0.13,-98.81,-82.31,62.06,-10.75,8.25,1.44,0.00,0.12,0.02,111.81,-76.94,0.06,-0.44,1.56,0.50,4,4
1772655394.228998,1057299,0.19,0.02,-0.11,-100.56,-82.19,61.56,-8.44,6.69,0.75,0.03,0.07,0.05,112.00,-76.87,0.06,0.56,1.37,-0.13,4,3
1772655394.269649,1057339,0.14,0.00,-0.21,-102.06,-82.12,61.19,-7.19,6.06,-0.88,-0.03,0.05,0.18,112.37,-76.87,0.13,1.81,3.87,-1.12,4,3
1772655394.309050,1057378,0.19,-0.15,-0.29,-103.75,-82.12,60.94,-7.94,4.94,-2.00,-0.03,-0.09,0.18,112.75,-76.75,0.31,2.06,3.06,-1.75,4,3
1772655394.348127,1057418,0.23,0.00,-0.29,-105.12,-82.12,60.63,-10.31,3.37,0.13,-0.05,-0.08,0.14,112.87,-76.69,0.44,1.37,3.75,-0.62,5,3
1772655394.389361,1057459,0.36,0.25,-0.34,-105.69,-82.06,60.19,-6.56,0.06,1.37,0.01,-0.07,0.03,113.44,-76.56,0.62,2.87,4.37,0.56,5,3
1772655394.429962,1057500,0.56,0.37,-0.38,-105.25,-81.94,59.88,-0.62,-6.50,0.37,0.03,0.01,-0.11,114.06,-76.56,0.69,2.44,3.94,1.44,5,3
1772655394.470484,1057540,0.35,0.44,-0.29,-103.56,-81.75,59.81,7.31,-14.88,-1.50,-0.10,-0.09,-0.13,114.37,-76.56,0.75,1.12,0.06,0.56,2,3
1772655394.509792,1057579,0.52,0.55,-0.34,-100.06,-81.69,60.13,18.94,-26.06,-1.94,-0.20,-0.07,0.06,114.12,-76.56,0.75,-0.50,-1.56,-1.19,2,1
1772655394.548806,1057618,0.94,0.56,-0.52,-92.94,-81.81,61.19,28.75,-38.13,-1.00,-0.11,0.00,0.01,114.06,-76.50,0.88,1.87,2.06,-2.06,3,2
1772655394.590235,1057660,1.53,0.31,-0.50,-81.31,-81.69,62.88,43.06,-61.44,-0.69,0.05,0.06,0.07,114.06,-76.37,1.12,4.06,1.56,-1.56,2,2
1772655394.630707,1057700,0.34,0.46,-0.03,-66.25,-81.00,64.94,48.69,-72.37,-4.12,0.14,0.03,-0.03,114.12,-76.31,1.37,6.37,2.75,-1.37,2,2
1772655394.671207,1057741,-0.51,0.20,0.67,-53.56,-79.81,67.31,57.19,-66.37,-4.56,0.00,-0.08,0.05,114.06,-76.25,1.69,3.06,-0.56,-0.94,2,2
1772655394.710653,1057780,-0.81,-0.60,0.81,-46.00,-78.37,69.69,54.25,-51.94,-0.44,-0.16,-0.16,0.23,113.69,-76.25,1.69,-0.94,-1.81,-1.06,3,2
1772655394.749759,1057819,-0.78,-0.80,0.73,-42.25,-77.06,71.56,44.88,-40.75,2.00,-0.13,-0.19,0.28,113.37,-76.19,1.81,2.12,1.50,-2.25,2,2
1772655394.791022,1057860,-0.64,-0.75,0.57,-39.06,-76.12,72.94,21.81,-24.31,-0.37,-0.03,-0.06,0.17,113.25,-76.12,2.00,1.87,2.31,-0.44,4,6
1772655394.831435,1057901,-0.34,-0.48,0.33,-35.44,-75.69,73.94,2.56,-12.31,-4.69,0.03,-0.02,0.00,113.62,-76.06,2.12,1.87,4.12,0.50,4,6
1772655394.871835,1057941,0.04,-0.06,0.04,-33.69,-75.50,74.19,-8.75,-7.00,-8.94,0.03,0.00,-0.10,114.25,-76.00,2.25,1.87,3.94,0.56,4,6
1772655394.911193,1057981,-0.06,0.31,0.13,-31.56,-75.50,74.31,-7.25,-6.12,-9.75,-0.01,-0.07,-0.10,114.62,-75.94,2.31,1.44,1.44,0.94,4,5
1772655394.950612,1058020,-0.23,0.21,0.19,-29.87,-75.44,74.50,-2.44,-6.25,-6.81,-0.08,-0.09,0.02,114.62,-76.00,2.31,-0.13,-0.69,0.44,4,5
1772655394.991934,1058061,-0.30,-0.01,0.24,-28.81,-75.31,74.69,2.06,-5.56,-2.62,-0.04,-0.09,0.04,114.62,-76.00,2.31,-0.69,-0.06,0.37,5,5
1772655395.032115,1058102,-0.23,0.02,0.20,-28.37,-75.19,74.81,1.44,0.37,-0.37,0.02,-0.05,0.05,114.56,-76.00,2.31,-0.06,0.37,-0.19,5,5
1772655395.072386,1058142,-0.39,-0.03,0.15,-28.62,-75.25,74.87,2.56,6.50,0.25,0.07,0.00,0.06,114.75,-75.94,2.31,-0.25,1.56,0.25,5,5
1772655395.111920,1058181,-1.29,-0.67,0.53,-29.50,-75.62,74.81,-7.87,22.00,-0.13,-0.02,0.03,0.07,114.87,-76.00,2.25,-1.25,0.50,0.88,5,5
1772655395.151097,1058221,-2.06,-0.74,1.25,-31.06,-76.75,74.25,-26.12,42.88,-5.37,-0.03,-0.02,0.12,115.06,-75.94,2.25,0.94,2.31,0.13,5,4
1772655395.192635,1058262,-0.68,-0.43,1.28,-34.38,-79.19,73.06,-54.75,87.31,-15.00,-0.06,-0.14,0.07,115.31,-75.94,2.25,-1.50,1.94,1.56,3,1
1772655395.233028,1058303,1.30,0.29,0.09,-42.13,-82.25,71.44,-60.63,84.06,-18.25,-0.09,-0.18,-0.24,116.06,-75.94,2.12,-1.87,3.87,2.50,3,1
1772655395.273346,1058343,1.86,0.42,-0.77,-4.31,-84.69,69.87,-46.88,54.38,-13.19,0.03,0.07,-0.38,116.69,-76.00,1.94,-2.94,0.81,2.62,3,1
1772655395.312798,1058382,1.51,0.67,-1.07,-3.87,-85.69,68.62,-29.00,22.50,-2.50,0.02,0.12,-0.27,117.12,-76.06,1.75,-1.56,-1.75,1.00,3,2
1772655395.351642,1058421,1.68,2.51,-1.14,-3.94,-85.81,68.12,3.75,-5.62,1.87,0.04,0.21,-0.20,117.00,-76.12,1.69,1.37,-2.56,-0.50,2,2
1772655395.393108,1058462,1.96,2.82,-0.96,-4.00,-85.37,69.69,78.25,-44.56,2.69,-0.10,0.51,-0.15,116.62,-76.12,1.75,1.62,-3.00,-4.12,2,2
1772655395.433624,1058503,1.51,0.73,-0.48,-4.37,-83.94,73.06,103.87,-72.31,6.37,-0.02,-0.12,0.41,115.62,-75.87,2.12,0.37,-2.00,-7.56,2,2
1772655395.474170,1058544,-0.29,-1.33,0.09,-37.31,-81.50,76.44,88.87,-73.00,13.63,0.04,-0.35,0.22,115.12,-75.75,2.06,-4.50,-1.87,-3.31,2,6
1772655395.513242,1058583,-1.22,-1.32,0.59,-34.38,-79.19,78.62,53.88,-46.56,10.94,-0.02,-0.09,0.24,115.00,-75.69,2.19,2.87,1.50,0.13,2,7
1772655395.552312,1058622,-0.55,-0.50,0.33,-33.13,-77.81,79.94,35.13,-30.62,3.44,-0.13,0.03,0.11,115.25,-75.75,2.25,3.56,3.56,4.12,2,7
1772655395.593945,1058663,-0.57,-0.17,0.35,-31.75,-77.06,80.81,14.31,-20.44,-3.25,-0.09,-0.05,0.05,115.69,-75.81,2.37,5.69,2.25,1.75,2,7
1772655395.634657,1058704,-0.55,0.07,0.31,-30.12,-76.56,81.44,7.87,-13.56,-6.25,-0.07,-0.11,0.04,115.50,-75.81,2.56,3.37,-0.94,-0.62,2,7
1772655395.674942,1058744,-0.26,-0.09,0.17,-28.37,-76.31,82.00,6.69,-8.25,-10.31,0.00,-0.05,0.07,115.12,-75.81,2.69,0.31,-0.69,-1.06,3,7
1772655395.714310,1058784,-0.18,-0.31,0.05,-26.62,-76.25,82.62,4.31,-4.06,-9.69,0.06,-0.10,0.02,115.06,-75.75,2.62,-2.37,0.06,-0.75,3,7
1772655395.753454,1058823,0.11,-0.07,-0.09,-25.25,-76.31,83.06,2.75,-2.94,-7.37,0.02,-0.11,-0.03,115.12,-75.75,2.62,-1.87,0.19,-1.19,3,6
1772655395.795034,1058864,-0.49,-0.22,0.10,-24.56,-76.31,83.37,1.50,2.62,-1.06,-0.06,-0.08,0.10,115.06,-75.69,2.62,-1.12,-0.81,-1.31,3,7
1772655395.835498,1058905,-1.37,-0.90,0.54,-25.12,-76.62,83.25,-14.25,22.75,2.12,-0.03,-0.08,0.05,114.94,-75.62,2.62,-1.12,-0.19,-1.44,4,6
1772655395.875957,1058945,-1.50,-1.12,0.93,-26.62,-77.69,82.31,-42.25,48.81,-2.75,-0.10,-0.08,0.03,114.81,-75.56,2.69,0.56,0.06,-1.19,4,3
1772655395.915653,1058984,-1.75,-1.47,1.70,-29.25,-79.87,80.50,-78.50,80.19,-6.19,-0.08,-0.27,0.04,114.62,-75.56,2.69,-0.44,-1.37,1.25,3,2
1772655395.953963,1059024,0.58,-0.36,0.73,-36.06,-82.75,77.56,-96.44,86.50,-7.12,-0.06,-0.17,-0.18,114.69,-75.62,2.69,2.19,1.06,2.31,4,2
1772655395.995501,1059065,1.72,0.62,-0.48,-3.69,-85.12,74.06,-87.50,64.56,-2.25,0.04,-0.02,-0.36,115.19,-75.69,2.62,-1.25,0.94,3.87,3,2
1772655396.035965,1059105,1.51,0.99,-0.75,-3.62,-86.12,71.06,-58.13,37.25,6.69,0.12,0.23,-0.17,115.50,-75.75,2.44,-1.37,-2.37,2.06,3,3
1772655396.076302,1059146,1.16,0.74,-0.53,-4.06,-85.87,68.75,-32.25,15.38,17.31,0.02,0.21,0.09,115.19,-75.87,2.25,-2.12,-3.25,1.25,2,2
1772655396.115581,1059185,0.78,0.41,-0.34,-175.19,-85.19,66.94,-18.50,0.31,19.50,-0.03,0.06,0.11,115.00,-75.87,2.19,-0.81,-1.37,-0.62,2,3
1772655396.154839,1059224,-0.34,0.49,-0.10,-174.44,-84.44,65.62,-13.19,0.44,18.94,-0.13,-0.10,0.25,114.69,-75.87,2.19,-0.06,0.37,-1.62,4,4
1772655396.203601,1059266,0.25,0.43,-0.10,-173.69,-83.69,64.50,-3.81,5.19,16.87,-0.03,-0.03,0.05,114.69,-75.81,2.31,1.06,2.37,-1.75,4,5
1772655396.240349,1059307,0.11,-0.47,-0.06,-173.12,-83.12,63.75,-11.00,1.81,7.87,0.06,0.04,0.11,114.81,-75.75,2.37,0.62,0.44,0.62,4,5
1772655396.277097,1059347,-0.13,0.64,0.10,-92.69,-82.87,63.00,-10.19,2.44,4.87,-0.07,0.08,-0.03,114.94,-75.75,2.37,-1.25,0.37,0.94,3,5
1772655396.316301,1059386,-0.32,0.48,0.00,-93.00,-82.69,62.56,-2.06,2.62,3.06,-0.29,0.09,0.04,115.19,-75.75,2.25,-2.62,1.81,-0.88,3,5
1772655396.355637,1059425,-0.59,0.51,-0.29,-93.69,-82.62,62.44,1.50,2.87,0.50,-0.61,-0.07,0.31,115.12,-75.69,2.19,-3.00,-1.81,-2.56,4,5
1772655396.397228,1059467,-0.81,0.44,-0.74,-94.69,-82.69,62.69,7.06,2.44,-4.44,-0.93,-0.39,1.14,114.19,-75.62,2.19,-2.87,-6.69,-5.31,4,6
1772655396.437823,1059507,0.05,0.31,-1.09,-96.19,-82.87,63.19,11.88,3.50,-2.37,-0.48,-0.26,1.06,113.37,-75.44,2.31,-1.19,1.19,-7.00,4,7
1772655396.477675,1059547,1.24,0.11,-1.38,-97.25,-82.87,63.69,9.44,-1.69,3.31,0.27,-0.20,0.73,113.81,-75.19,2.75,5.62,8.88,-3.44,4,7
1772655396.516862,1059587,1.47,0.42,-1.41,-95.75,-82.69,63.81,5.69,-12.00,4.44,0.65,-0.77,0.67,115.06,-75.00,3.12,7.44,12.81,2.19,4,6
1772655396.555918,1059626,0.94,0.82,-1.43,-91.56,-82.56,63.88,2.19,-15.50,3.19,0.45,-0.81,0.83,116.06,-75.06,3.37,8.56,0.19,6.56,2,5
1772655396.598058,1059667,0.69,1.32,-1.29,-87.12,-82.50,63.94,-0.19,-14.94,-1.87,-0.11,-0.33,1.01,115.00,-75.44,3.44,10.00,-5.62,7.06,3,3
1772655396.638503,1059708,0.14,1.10,-0.79,-81.81,-82.62,64.19,0.25,-22.81,-6.56,-0.19,-1.03,0.64,115.62,-75.75,3.50,10.50,1.81,13.75,3,4
1772655396.678921,1059748,0.04,1.48,-0.49,-74.06,-82.69,64.62,6.12,-29.50,-11.31,-0.55,0.01,-0.11,115.37,-76.31,3.50,18.12,-11.13,14.88,3,3
1772655396.717946,1059787,0.20,1.08,-0.64,-63.69,-82.81,65.87,23.31,-41.75,-22.19,-0.62,-0.12,-0.68,115.06,-77.06,3.44,15.31,-1.81,18.19,3,3
1772655396.756964,1059826,2.32,-0.57,-0.21,-47.44,-82.44,68.00,34.38,-65.87,-23.94,0.28,0.09,-0.98,116.00,-77.62,3.19,6.62,-5.37,16.19,3,3
1772655396.798710,1059868,0.90,-1.86,1.29,-31.12,-80.19,70.06,22.31,-99.81,-9.63,1.05,0.34,-1.37,114.25,-78.12,2.87,-0.94,-11.56,3.37,3,3
1772655396.839128,1059909,0.20,-1.86,2.16,-22.62,-77.12,71.06,0.37,-75.12,-3.31,0.41,0.84,-1.71,113.56,-78.31,2.69,3.25,-4.81,0.06,4,6
1772655396.879759,1059949,-1.23,-0.71,2.27,-18.00,-74.69,71.19,-12.38,-52.63,-8.25,0.49,1.17,-0.97,111.94,-78.31,2.94,-2.06,-11.00,-0.25,5,6
1772655396.918879,1059988,-0.20,-0.44,1.55,-14.81,-73.19,71.31,-9.31,-26.12,-8.00,0.05,0.40,-0.25,108.94,-78.94,2.00,-6.44,-22.75,11.81,5,6
1772655396.957654,1060027,0.71,-0.44,1.10,-13.13,-72.50,71.31,-7.00,-14.81,-3.69,0.51,0.01,-1.10,108.62,-79.12,2.06,12.56,13.56,1.69,5,6
1772655396.999280,1060069,0.06,-0.20,0.83,-12.38,-72.00,71.12,-10.19,-16.19,0.19,0.43,-0.25,-0.74,111.50,-79.31,2.00,1.31,8.63,13.75,5,7
1772655397.039863,1060109,0.02,-0.07,0.56,-11.63,-71.44,70.87,-9.31,-13.31,-0.75,0.39,-0.10,-0.17,114.87,-79.62,1.69,2.19,15.56,11.38,6,7
1772655397.080317,1060150,-0.29,0.17,0.16,-10.75,-70.87,70.81,-2.69,-11.75,-5.69,-0.29,0.53,-0.59,119.06,-79.69,1.00,-15.50,14.44,9.69,6,6
1772655397.119303,1060189,-1.32,0.26,0.42,-9.75,-70.37,71.06,3.81,-15.31,-7.06,-0.44,0.10,0.14,121.44,-79.69,0.19,-17.12,-1.62,2.31,6,7
1772655397.158367,1060228,-0.67,0.15,-0.02,-9.25,-70.00,71.44,8.56,-6.62,-2.87,-0.26,0.06,0.52,120.81,-79.87,359.44,-13.44,-9.81,0.37,6,8
1772655397.199915,1060269,0.58,0.21,-0.97,-9.63,-69.94,71.75,8.25,-1.56,0.75,-0.16,-0.14,0.33,121.62,-79.75,359.37,-1.12,16.31,-2.12,6,8
1772655397.240473,1060310,0.32,0.31,-1.05,-9.81,-69.75,71.87,2.06,-12.31,0.75,-0.08,-0.56,0.63,124.44,-79.44,359.62,5.25,13.69,3.81,5,4
1772655397.281117,1060351,-0.50,0.60,-0.72,-9.56,-69.12,71.87,-3.69,-17.94,-0.44,-0.02,-0.68,0.90,126.31,-79.37,359.81,7.06,4.75,5.75,4,4
1772655397.320315,1060390,-1.06,1.04,-0.46,-8.94,-68.50,71.81,-7.50,-13.56,-3.75,-0.10,-0.80,0.97,122.44,-79.87,359.87,-0.69,-27.19,9.06,4,4
1772655397.359440,1060429,-1.18,0.92,-0.55,-8.00,-68.12,71.87,-5.75,-7.25,-6.56,-0.21,-0.61,1.40,118.62,-80.75,359.06,-6.31,-19.44,10.00,3,4
1772655397.401280,1060470,-0.43,0.84,-0.79,-8.06,-68.37,71.81,-4.44,-3.87,-8.44,-0.66,-0.52,1.26,115.50,-81.31,358.50,-0.56,-13.06,5.06,3,3
1772655397.441681,1060511,-0.62,0.41,-0.08,-6.75,-68.12,72.06,-5.44,-16.44,-11.38,-0.49,-0.25,0.41,118.25,-81.06,358.81,6.50,23.56,-3.06,3,4
1772655397.481604,1060551,-0.73,0.15,0.44,-5.56,-67.56,72.31,-2.50,-8.44,-5.87,0.04,-0.16,0.00,122.12,-80.94,358.69,-3.19,6.81,10.44,5,5
1772655397.520999,1060590,-0.36,-0.47,0.58,-4.94,-67.44,72.50,-2.87,-1.19,-5.75,0.20,0.26,-0.80,123.69,-81.12,358.25,-2.94,8.25,2.75,5,4
1772655397.559905,1060629,-0.04,-1.02,1.23,-4.44,-67.62,72.56,-3.50,7.00,-2.56,0.27,0.49,-1.78,126.50,-81.06,357.75,-16.56,-1.25,7.56,4,4
1772655397.601718,1060671,-0.78,-1.01,2.15,-4.06,-68.00,72.44,-9.19,17.94,-1.62,0.24,1.23,-1.75,124.50,-81.56,356.56,-23.81,-22.00,-0.50,4,6
1772655397.642031,1060711,-2.64,-1.12,3.33,-3.75,-69.06,72.19,-9.63,49.38,1.12,-0.14,0.88,-1.14,119.25,-81.94,356.00,-4.94,-24.50,-3.37,5,6
1772655397.682623,1060752,-2.53,-1.07,3.40,-4.44,-71.69,71.62,-11.56,98.31,12.00,0.64,1.16,-0.88,113.44,-82.31,356.00,1.37,-18.94,-2.37,5,6
1772655397.721700,1060791,0.47,-1.63,2.36,-7.37,-75.87,70.62,-15.63,121.62,16.62,0.75,1.05,-0.50,107.94,-82.37,355.94,-5.56,-19.94,-5.06,5,5
1772655397.760941,1060830,3.72,-1.24,-0.10,-13.25,-80.12,69.31,-21.12,105.62,14.00,1.29,0.60,-0.81,105.12,-82.19,356.06,-2.00,-7.19,-9.75,5,6
1772655397.802429,1060872,4.13,-0.73,-1.99,-2.62,-83.19,68.00,-17.50,61.31,15.06,1.18,0.31,-0.02,99.69,-82.00,356.06,-5.56,-15.06,-10.13,5,7
1772655397.842868,1060912,2.29,-0.03,-2.19,-3.12,-84.62,66.87,-6.56,36.00,15.38,-0.18,0.11,0.39,96.31,-81.56,356.44,-7.37,-13.81,-10.69,4,7
1772655397.883119,1060953,0.38,0.01,-2.19,-3.81,-84.94,66.00,-2.19,18.50,17.81,-1.15,0.17,0.34,93.00,-81.12,356.44,-14.38,-16.75,-14.00,2,8
1772655397.922616,1060992,-0.86,0.04,-1.10,-4.37,-84.81,65.37,2.06,9.88,12.44,-1.17,-0.34,0.92,88.06,-80.56,356.00,-20.00,-29.06,-13.38,2,7
1772655397.961649,1061031,-1.16,-1.81,-0.31,-5.00,-84.44,64.69,-10.50,7.94,19.69,-0.69,-0.29,0.86,81.37,-79.94,355.94,-8.25,-27.87,-14.81,3,6
1772655398.003034,1061072,-0.71,-1.04,0.35,-5.81,-83.81,62.31,-53.69,23.69,21.44,0.00,-0.21,0.82,80.19,-79.25,356.37,-0.94,-2.12,-13.44,2,8
1772655398.043307,1061113,0.27,0.23,-0.07,-6.19,-83.69,59.44,-60.31,31.37,5.12,0.25,-0.26,0.76,81.50,-79.00,356.75,1.56,11.06,-6.37,3,11
1772655398.083696,1061153,0.76,0.83,-0.64,-6.44,-83.50,56.81,-49.94,25.62,12.38,0.43,-0.05,0.20,83.81,-78.69,357.12,-9.13,5.25,-8.25,5,13
1772655398.122996,1061192,0.87,1.11,-1.13,-94.69,-82.81,54.44,-36.94,19.06,20.56,-0.09,-0.52,0.98,83.94,-78.62,356.50,-21.25,-10.56,0.75,5,13
1772655398.162002,1061232,1.16,1.46,-0.93,-96.37,-81.81,52.31,-23.87,7.44,24.81,0.19,-0.38,0.27,83.56,-78.37,356.06,-13.44,2.06,-10.75,5,13
1772655398.204045,1061273,0.36,1.69,-0.05,-95.62,-81.00,50.81,-11.56,-3.06,16.44,-0.08,-0.42,0.12,86.25,-77.87,356.00,-21.87,10.50,-13.63,4,14
1772655398.244606,1061314,-0.26,1.68,0.00,-93.62,-80.44,49.88,-6.25,-5.31,12.00,-0.07,-0.72,1.56,86.62,-77.44,355.94,-2.69,-6.50,-9.69,4,13
1772655398.284589,1061354,0.13,1.14,-0.43,-92.75,-80.12,49.38,-3.81,4.06,2.94,-0.10,-1.07,0.83,86.81,-77.31,355.81,-13.13,2.69,2.31,5,11
1772655398.324477,1061394,0.57,0.66,-0.83,-93.31,-80.12,49.13,-10.44,1.00,-2.56,-0.16,-0.98,0.75,88.25,-77.44,355.31,-9.38,9.25,2.50,5,12
1772655398.363592,1061433,0.60,0.37,-0.44,-92.06,-80.19,48.69,-19.25,-7.87,-2.69,-0.15,-0.38,0.47,90.62,-77.56,354.87,-12.06,12.19,2.69,5,11
1772655398.405613,1061475,0.44,0.24,0.27,-88.87,-80.44,48.00,-23.87,-7.75,-9.31,0.02,0.61,-0.45,93.87,-77.62,354.69,-5.25,17.81,2.06,5,10
1772655398.445579,1061515,-0.22,0.29,1.17,-86.00,-80.94,47.81,-10.75,-9.00,-22.00,0.22,1.32,-2.11,97.75,-77.69,354.50,-3.37,20.25,6.37,5,8
1772655398.485599,1061555,-0.58,-0.70,1.41,-82.81,-81.81,48.81,18.62,-11.88,-21.62,0.15,1.46,-1.26,98.87,-77.81,354.44,0.19,-5.50,1.50,3,7
1772655398.524988,1061594,-0.08,-1.18,1.00,-79.69,-82.37,50.44,29.69,-10.69,-9.44,-0.12,1.08,-0.43,96.00,-78.06,354.06,-0.25,-21.06,4.00,3,7
1772655398.564003,1061633,0.23,-1.24,0.38,-77.81,-82.56,51.88,28.50,-8.19,-4.87,0.03,0.36,-0.53,93.87,-78.06,354.19,8.25,-1.75,-2.50,4,9
1772655398.605860,1061675,0.22,-0.83,0.01,-76.37,-82.75,53.00,21.94,-11.00,-6.00,0.18,-0.46,-0.41,93.62,-78.06,354.50,6.69,0.31,1.81,4,9
1772655398.645927,1061715,0.41,-0.02,0.00,-72.12,-82.75,54.00,16.87,-21.00,-3.12,0.16,-0.64,0.37,92.87,-78.06,354.75,4.75,-5.06,-1.12,5,10
1772655398.686214,1061756,1.49,0.99,-0.48,-66.06,-82.56,54.94,24.56,-28.00,-3.12,-0.14,-0.25,-0.33,92.69,-78.00,354.87,1.75,2.94,1.19,6,11
1772655398.725757,1061795,2.77,1.40,-1.15,-57.13,-82.00,56.38,45.00,-60.88,-7.62,-0.26,0.11,-0.23,93.50,-78.12,354.81,-1.44,2.31,1.81,6,12
1772655398.764609,1061834,2.95,0.94,-0.66,-41.81,-80.31,58.94,55.38,-100.62,-15.81,0.08,0.17,-0.38,94.69,-78.19,354.62,0.00,8.75,2.19,6,12
1772655398.806864,1061877,0.01,0.39,0.92,-27.00,-76.75,62.25,63.88,-135.75,-22.62,0.29,0.01,-0.29,95.69,-78.19,354.81,6.00,4.19,1.44,5,10
1772655398.847442,1061917,-1.55,-1.63,1.54,-20.25,-72.69,65.37,64.50,-103.00,-15.06,0.03,-0.04,0.63,95.06,-78.37,354.62,-1.12,-7.06,4.56,6,11
1772655398.887208,1061957,-1.70,-0.70,1.28,-17.56,-69.50,67.62,34.69,-65.81,-10.75,0.04,-0.12,0.49,94.06,-78.37,354.69,2.56,-2.44,-2.25,6,10
1772655398.926987,1061996,-1.01,-0.15,0.85,-15.94,-67.69,69.06,21.75,-40.13,-15.44,-0.15,-0.09,0.03,94.87,-78.31,354.81,1.31,7.31,-0.88,6,10
1772655398.966103,1062035,-0.58,-0.06,0.60,-14.63,-66.50,70.19,15.56,-29.56,-11.00,-0.09,-0.13,-0.01,95.75,-78.19,355.19,7.19,4.25,-3.44,6,8
1772655399.008029,1062078,-0.53,-0.10,0.40,-13.94,-65.69,70.81,7.19,-23.37,-4.00,-0.10,-0.25,-0.33,95.81,-78.12,355.50,6.75,1.56,-0.69,6,7
1772655399.047985,1062117,-0.23,0.86,0.16,-13.56,-64.94,71.12,10.00,-13.19,-2.25,-0.03,-0.31,0.16,95.00,-78.12,355.69,3.25,-7.12,1.12,5,6
1772655399.087896,1062157,0.09,0.82,0.04,-13.75,-64.44,71.69,27.37,-16.25,-1.87,-0.16,0.10,-0.01,94.06,-78.12,355.87,6.56,0.44,-4.06,3,6
1772655399.127645,1062197,-0.50,0.02,0.13,-14.50,-63.75,72.62,38.19,-23.25,-1.19,-0.27,0.01,0.33,93.00,-78.12,355.94,-0.88,-10.50,1.94,3,5
1772655399.166603,1062236,-0.34,-0.58,0.18,-15.44,-62.88,73.56,34.06,-21.12,1.56,0.00,0.02,0.11,91.31,-78.12,355.94,6.44,-3.31,-4.25,3,4
1772655399.208770,1062278,-0.61,-0.34,0.35,-16.25,-62.25,74.19,18.44,-9.00,-0.75,0.18,0.07,0.07,90.62,-77.94,356.44,5.94,-3.06,-0.37,3,4
1772655399.248630,1062318,-0.75,-0.42,0.20,-16.50,-62.19,74.69,9.81,5.06,-5.50,-0.07,-0.08,0.45,89.62,-78.06,356.37,2.25,-3.50,1.12,3,5
1772655399.288804,1062358,-0.13,-0.42,-0.16,-16.31,-62.63,75.12,2.25,14.69,-5.50,-0.14,0.00,0.24,89.44,-78.00,356.44,-0.13,-0.06,-2.37,5,5
1772655399.328208,1062398,0.32,-0.21,-0.16,-16.25,-63.25,75.25,-4.56,12.56,-4.75,-0.07,0.12,-0.16,89.94,-77.81,356.69,2.69,4.37,-3.87,5,4
1772655399.367178,1062437,-0.44,-0.16,0.34,-15.94,-63.69,75.25,-5.31,9.00,-3.69,0.15,0.00,-0.15,90.06,-77.75,356.87,1.87,-1.00,-1.12,5,5
1772655399.409195,1062479,-1.40,-0.60,0.81,-15.88,-64.19,75.19,-5.25,19.62,-1.06,0.00,0.01,0.08,89.75,-77.75,356.94,-0.06,-2.56,-0.50,6,5
1772655399.449234,1062519,-2.60,-1.26,1.56,-16.19,-65.25,74.94,-16.50,45.88,0.31,-0.10,-0.08,0.34,89.37,-77.69,357.00,1.44,1.25,-3.69,6,5
1772655399.489264,1062559,-2.78,-0.75,2.09,-16.75,-67.56,74.00,-45.56,87.75,0.06,0.00,-0.13,0.46,89.62,-77.50,357.25,1.44,4.87,-3.56,6,5
1772655399.528107,1062598,-1.18,-0.43,1.79,-18.06,-71.56,72.19,-67.50,124.75,2.19,0.14,-0.23,0.39,90.00,-77.37,357.31,-2.69,2.81,0.06,6,5
1772655399.566993,1062637,1.83,0.46,0.17,-22.06,-76.31,69.50,-71.81,132.06,5.62,-0.14,-0.18,0.21,90.19,-77.37,357.25,-4.44,3.37,0.94,6,5
1772655399.609138,1062679,3.77,0.94,-1.72,-30.06,-80.06,67.00,-49.13,93.31,10.13,-0.06,-0.03,-0.49,92.00,-77.31,357.19,-5.37,12.38,0.19,6,5
1772655399.649934,1062719,2.78,0.99,-2.03,-39.38,-81.62,65.19,-18.06,28.56,14.31,-0.03,0.04,-0.40,93.44,-77.31,357.12,-0.37,3.62,-0.31,6,4
1772655399.689910,1062760,0.72,0.30,-0.91,-44.44,-81.75,64.25,-4.12,1.50,10.56,-0.05,0.17,-0.04,93.75,-77.37,357.12,2.06,0.81,1.62,4,5
1772655399.728911,1062799,0.33,0.25,-0.47,-46.44,-81.56,63.75,-7.94,10.19,3.75,0.01,0.19,-0.10,93.56,-77.44,357.12,1.94,-0.31,2.94,5,6
1772655399.768220,1062837,-0.06,-0.37,-0.26,-48.88,-81.87,63.25,-11.25,14.00,0.88,-0.05,-0.10,0.24,93.19,-77.56,356.94,-2.75,-1.87,2.50,5,6
1772655399.809610,1062879,-0.20,-0.60,-0.23,-51.69,-82.12,62.56,-18.69,13.63,4.12,-0.22,-0.08,0.13,93.44,-77.62,356.87,-1.25,2.69,0.13,4,6
1772655399.850171,1062920,0.04,-0.02,-0.23,-54.06,-82.25,61.56,-21.69,9.44,3.69,-0.11,-0.05,0.03,94.06,-77.62,356.81,-0.69,3.25,1.06,4,6
1772655399.890622,1062960,0.37,0.40,-0.26,-55.94,-82.37,60.81,-13.31,9.50,1.00,0.08,0.22,-0.01,94.94,-77.56,356.87,-0.13,7.50,-0.75,6,10
1772655399.930121,1063000,0.57,0.28,-0.40,-58.06,-82.56,60.31,-7.37,7.94,1.44,0.18,0.12,-0.37,96.19,-77.62,356.81,-3.69,4.19,1.75,6,10
1772655399.969600,1063039,0.12,-0.14,-0.36,-60.50,-82.62,59.94,-5.94,9.13,4.94,-0.05,-0.08,-0.07,96.37,-77.69,356.50,-6.69,-2.94,1.50,6,10
1772655400.010754,1063080,0.29,0.02,-0.56,-63.13,-82.56,59.44,-8.00,6.56,4.12,-0.11,0.01,-0.09,96.44,-77.69,356.19,-6.06,-0.31,0.00,5,10
1772655400.051138,1063121,0.44,0.37,-0.45,-64.69,-82.62,59.06,-4.37,0.88,-2.81,-0.13,0.25,0.01,96.75,-77.69,356.06,-0.81,1.81,-0.56,4,9
1772655400.091313,1063161,-0.28,-0.28,0.11,-63.63,-82.75,59.13,-1.87,-4.50,-4.06,0.05,0.00,0.25,97.06,-77.81,356.00,-1.12,1.37,3.56,4,9
1772655400.130690,1063200,-0.59,-0.46,0.15,-62.06,-82.81,59.13,-8.25,1.56,-2.56,-0.03,-0.22,0.08,97.37,-77.94,355.81,-1.69,2.12,2.44,4,7
1772655400.169545,1063239,-0.09,-0.36,-0.18,-62.69,-83.00,58.88,-11.50,8.13,-2.62,-0.08,-0.14,0.05,97.62,-77.94,355.75,-2.56,1.12,1.06,4,7
1772655400.211793,1063280,0.35,-0.06,-0.43,-6.06,-83.19,58.38,-14.56,7.06,-1.75,-0.04,-0.07,-0.18,98.12,-77.94,355.69,-0.69,2.87,0.19,4,7
1772655400.252394,1063322,0.09,0.20,-0.11,-6.00,-83.25,57.94,-10.63,0.50,-0.06,0.00,0.04,-0.03,98.25,-77.94,355.69,0.06,-0.06,1.25,5,7
1772655400.291997,1063362,-0.09,0.21,0.00,-6.00,-83.25,57.63,-6.25,-0.88,0.69,0.05,0.00,0.00,98.31,-78.00,355.56,0.44,-0.50,1.69,3,3
1772655400.330947,1063401,-0.40,0.08,0.15,-6.06,-83.25,57.38,-1.87,5.37,1.69,0.01,-0.02,0.19,98.25,-78.00,355.62,0.75,-0.37,0.56,2,3
1772655400.369881,1063440,0.00,0.02,-0.11,-6.12,-83.25,57.19,-3.00,6.56,0.88,-0.09,-0.11,0.05,98.31,-78.06,355.56,-0.88,1.37,0.25,3,3
1772655400.411667,1063481,0.06,0.05,-0.17,-6.06,-83.37,57.06,-4.87,5.06,-1.44,-0.06,-0.05,-0.01,98.62,-78.06,355.56,0.19,1.56,0.13,3,3
1772655400.451873,1063522,0.31,0.38,-0.22,-6.00,-83.50,57.00,1.50,2.37,-2.62,0.08,0.00,0.00,98.87,-78.06,355.62,2.37,1.69,0.25,3,3
1772655400.492710,1063562,0.26,0.31,-0.20,-5.94,-83.56,57.25,12.44,-2.37,-0.56,0.04,0.02,-0.12,99.19,-78.00,355.75,1.25,1.12,-0.31,6,3
1772655400.531611,1063601,0.08,0.37,-0.11,-6.12,-83.44,57.75,19.56,-5.69,0.56,-0.11,0.04,0.01,98.87,-78.00,355.75,0.69,-3.25,-1.44,5,5
1772655400.570613,1063640,0.08,-0.07,-0.15,-6.25,-83.25,58.56,24.25,-8.06,0.94,-0.13,0.05,0.10,98.44,-77.94,355.87,1.69,-0.62,-1.37,5,5
1772655400.612462,1063682,0.12,-0.19,-0.18,-6.25,-83.12,59.44,21.00,-9.13,-0.81,-0.04,-0.02,-0.06,98.50,-77.94,356.00,3.37,2.37,-0.44,5,5
1772655400.653032,1063723,0.28,-0.27,-0.19,-6.12,-83.19,60.31,17.12,-7.56,-4.19,0.13,0.09,-0.12,98.81,-77.94,356.12,3.25,2.25,-0.44,4,5
1772655400.693318,1063763,0.12,-0.33,-0.13,-5.94,-83.25,61.19,15.44,-9.38,-5.87,0.00,0.00,-0.07,99.12,-77.94,356.19,0.19,-0.13,1.56,4,6
1772655400.732599,1063802,-0.03,-0.31,-0.12,-5.69,-83.37,62.00,12.81,-10.13,-4.56,-0.08,-0.13,0.05,98.94,-78.00,356.06,-1.00,-1.19,0.69,5,6
1772655400.771306,1063841,0.06,-0.12,-0.12,-5.50,-83.31,62.69,11.94,-10.13,-4.06,-0.08,0.01,-0.06,98.94,-78.00,356.12,0.25,0.56,-0.44,5,6
1772655400.812799,1063882,0.66,0.26,-0.45,-5.44,-83.19,63.38,16.50,-14.88,-2.87,-0.06,0.02,-0.07,99.06,-78.00,356.06,-0.50,0.62,0.94,5,5
1772655400.854398,1063924,1.61,0.37,-0.99,-47.81,-82.62,64.37,30.31,-37.88,-0.69,-0.05,0.13,-0.29,99.31,-78.00,356.12,0.94,0.50,-0.69,5,5
1772655400.894283,1063964,2.51,0.74,-1.02,-39.75,-81.25,65.75,46.06,-70.44,0.44,-0.03,0.14,-0.29,99.25,-78.00,356.06,0.75,-3.06,-1.25,2,4
1772655400.933424,1064003,1.97,0.06,-0.68,-31.12,-78.62,67.87,59.94,-104.75,0.69,0.02,0.20,-0.20,98.81,-78.00,356.19,1.81,-4.56,-2.25,2,2
1772655400.972291,1064042,0.08,-0.63,0.18,-25.12,-74.81,69.94,55.19,-114.06,2.87,0.01,-0.13,0.26,97.50,-77.94,356.19,0.75,-7.87,-1.94,2,3
1772655401.014950,1064084,-2.48,-1.30,1.39,-22.25,-71.12,71.31,26.37,-69.56,6.56,-0.01,-0.23,0.71,95.75,-77.87,356.31,1.56,-9.44,-2.87,3,3
1772655401.055015,1064124,-0.98,0.10,0.58,-20.87,-69.12,71.81,0.88,-39.75,-4.31,-0.06,-0.12,0.29,95.06,-77.81,356.44,1.75,1.75,-2.06,3,3
1772655401.095134,1064165,-0.25,0.24,0.00,-19.19,-68.12,72.19,1.75,-17.31,-8.56,-0.09,-0.10,-0.08,95.69,-77.81,356.44,-1.25,3.31,0.69,3,2
1772655401.134217,1064204,-0.28,0.16,0.11,-17.94,-67.44,72.50,-2.50,-22.31,-2.75,-0.03,-0.02,0.05,96.00,-77.81,356.37,-0.50,1.50,1.44,5,4
1772655401.173050,1064243,-0.33,0.10,0.08,-17.12,-66.62,72.56,-4.12,-21.44,-0.56,0.00,-0.07,-0.01,96.12,-77.94,356.31,0.56,1.12,2.00,5,4
1772655401.214666,1064284,-0.30,0.23,0.02,-16.25,-65.94,72.62,-2.37,-19.37,-5.25,-0.03,-0.05,0.00,96.44,-77.94,356.31,1.25,1.19,1.37,5,5
1772655401.255879,1064325,-0.58,0.16,0.13,-15.38,-65.37,72.94,4.19,-11.81,-4.37,-0.03,-0.13,0.08,96.44,-78.00,356.31,0.13,0.06,1.25,5,5
1772655401.296033,1064365,-0.17,0.25,-0.06,-15.19,-65.00,73.19,7.56,-8.69,-0.06,-0.08,-0.11,0.05,96.37,-78.00,356.31,1.69,-0.13,0.19,5,5
1772655401.335171,1064405,0.08,0.39,-0.24,-15.44,-64.69,73.44,11.94,-9.75,1.56,-0.04,-0.02,0.04,96.44,-78.00,356.44,2.06,1.81,0.06,5,5
1772655401.374303,1064444,0.08,0.73,-0.23,-15.94,-64.31,73.75,17.62,-10.75,2.62,0.02,-0.08,-0.06,96.50,-78.00,356.50,1.44,0.37,0.13,6,5
1772655401.415302,1064485,0.14,0.86,-0.26,-17.00,-63.81,74.31,38.56,-13.19,4.62,0.03,0.00,0.01,96.50,-78.00,356.56,1.19,0.75,-0.81,5,5
1772655401.456917,1064526,-0.06,-0.33,-0.21,-18.75,-63.19,75.19,45.81,-16.06,7.12,0.00,-0.03,-0.02,96.56,-78.00,356.56,-1.19,0.13,0.06,5,5
1772655401.496642,1064566,-0.43,-0.89,0.04,-20.44,-62.56,76.00,30.25,-12.44,5.87,-0.02,-0.07,-0.05,96.56,-78.00,356.56,0.31,-0.37,0.19,5,5
1772655401.536379,1064606,-0.59,-0.63,0.22,-21.31,-62.13,76.37,9.56,-5.44,-0.44,-0.02,-0.12,0.05,96.56,-78.00,356.50,0.31,0.00,1.37,3,4
1772655401.575203,1064645,-0.92,-0.26,0.33,-21.25,-62.13,76.56,-2.44,4.44,-3.94,-0.07,-0.10,0.00,96.62,-78.00,356.50,0.62,1.44,0.44,2,3
1772655401.617342,1064687,-1.28,-0.10,0.49,-20.94,-62.75,76.50,-15.69,24.31,-6.56,-0.02,-0.09,0.09,96.69,-78.06,356.50,0.06,0.25,1.37,2,2
1772655401.658318,1064728,-1.64,-0.71,1.18,-20.56,-64.12,76.06,-29.50,60.25,-7.50,0.03,-0.06,0.19,96.69,-78.06,356.50,0.81,1.06,0.50,2,3
1772655401.697949,1064768,-1.37,-0.51,1.09,-20.62,-66.69,75.19,-41.88,80.00,-7.37,-0.01,-0.13,0.14,97.12,-78.06,356.50,0.13,4.12,0.75,2,2
1772655401.738441,1064808,-0.44,0.30,0.60,-21.25,-69.87,74.12,-40.13,84.56,-8.75,-0.01,-0.03,0.02,97.81,-78.12,356.44,-2.87,2.87,2.19,2,2
1772655401.778601,1064848,1.16,0.21,-0.19,-23.00,-73.19,73.06,-34.63,84.12,-5.44,-0.07,0.18,0.04,98.44,-78.12,356.31,-1.44,3.62,0.19,1,3
1772655401.821428,1064891,1.83,-0.14,-1.03,-25.31,-76.00,72.00,-32.69,67.00,-6.06,-0.06,0.17,-0.29,99.06,-78.12,356.31,-0.19,2.44,-1.00,1,3
1772655401.863091,1064932,2.14,0.63,-1.41,-27.56,-78.37,70.87,-24.00,37.38,-8.38,-0.02,0.10,-0.38,99.25,-78.06,356.37,0.62,-0.31,-1.06,2,5
1772655401.903479,1064973,2.20,0.76,-1.81,-27.06,-79.12,70.81,-5.06,3.31,-7.75,-0.01,0.02,-0.30,99.44,-78.00,356.50,2.00,0.06,-1.75,2,6
1772655401.945251,1065015,2.48,1.64,-1.85,-25.37,-78.44,71.37,26.50,-34.44,1.31,0.00,0.09,-0.30,99.62,-77.94,356.56,-0.56,-0.75,-0.44,2,6
1772655401.984984,1065055,2.48,0.70,-1.46,-24.12,-76.25,72.87,63.56,-75.19,9.75,0.01,-0.05,0.11,99.50,-77.94,356.50,-1.37,-3.44,-1.50,2,6
1772655402.024731,1065094,0.31,0.00,-0.38,-23.44,-72.81,74.87,73.94,-97.25,13.13,0.00,0.05,0.35,98.81,-77.94,356.50,-0.56,-2.69,-2.19,2,6
1772655402.067135,1065137,-2.47,-1.02,0.77,-23.56,-69.50,76.50,58.19,-72.37,14.81,0.02,-0.11,0.45,98.19,-77.87,356.50,-2.25,-2.50,1.25,2,7
1772655402.108036,1065178,-1.79,-0.72,0.90,-24.25,-67.62,77.31,26.12,-27.81,7.62,-0.06,-0.10,0.49,97.50,-77.94,356.50,2.62,2.06,-0.69,2,7
1772655402.148743,1065218,-1.13,-0.24,0.73,-24.75,-66.87,77.75,12.44,-6.37,1.81,-0.10,-0.10,0.18,97.44,-77.94,356.50,-1.25,2.12,1.44,2,7
1772655402.188356,1065258,-0.59,-0.16,0.26,-24.87,-66.69,78.00,1.37,-1.62,-3.50,-0.07,-0.09,0.02,97.87,-77.94,356.50,1.00,2.25,-0.81,2,7
1772655402.227141,1065297,-0.66,-0.33,0.20,-24.44,-66.81,78.12,-5.56,3.00,-5.06,0.01,-0.01,-0.06,98.12,-77.87,356.62,0.94,1.37,-0.25,3,7
1772655402.268967,1065339,-1.19,-0.50,0.41,-23.81,-67.25,78.06,-13.63,19.31,-6.12,0.03,-0.13,0.13,98.06,-77.87,356.62,1.00,0.13,-0.06,2,4
1772655402.309714,1065379,-2.94,-0.68,1.39,-23.75,-68.37,77.69,-24.00,51.94,-5.00,-0.02,-0.18,0.29,97.87,-77.81,356.75,2.19,-0.19,-1.06,2,3
1772655402.349629,1065419,-1.52,-0.64,1.80,-25.12,-70.87,76.75,-42.63,92.56,-3.87,0.00,-0.30,0.49,97.87,-77.81,356.87,1.37,4.12,0.75,1,3
1772655402.390851,1065460,1.19,0.06,0.27,-28.25,-74.31,75.06,-55.06,92.62,-4.69,-0.09,-0.03,-0.20,99.06,-77.81,356.87,-1.19,7.87,2.37,2,3
1772655402.431435,1065501,2.86,0.76,-1.41,-31.81,-77.19,73.37,-41.44,56.50,-5.87,-0.01,0.23,-0.61,100.62,-77.87,356.75,-2.25,7.56,2.00,2,3
1772655402.473830,1065543,2.09,-0.42,-1.79,-33.81,-78.62,72.37,-16.81,17.56,-1.31,0.04,0.26,-0.56,101.69,-77.81,356.81,-0.19,1.06,-1.37,2,2
1772655402.512666,1065582,1.03,-0.45,-1.27,-33.63,-78.69,71.62,-17.56,-10.25,3.31,0.07,-0.03,-0.30,102.00,-77.81,356.81,1.44,-2.31,-1.56,3,2
1772655402.551996,1065621,0.26,-0.37,-0.65,-31.37,-78.12,71.00,-24.00,-15.19,-1.00,0.04,-0.13,-0.13,101.37,-77.81,356.87,0.94,-3.50,-0.44,3,2
1772655402.595092,1065664,-0.28,-0.36,-0.21,-29.69,-77.87,70.37,-32.56,-6.75,-0.13,-0.03,-0.07,0.17,100.87,-77.81,356.81,-1.06,-2.06,0.62,4,5
1772655402.636033,1065705,-0.45,0.45,0.15,-27.25,-77.69,69.00,-37.44,-4.19,-2.00,-0.04,-0.08,0.13,100.62,-77.81,356.75,-0.62,-0.50,0.00,4,6
1772655402.676612,1065746,-0.31,0.71,0.21,-25.37,-77.69,68.19,-23.37,-1.00,-4.19,-0.01,0.08,0.13,100.62,-77.81,356.75,-2.62,0.19,0.69,4,6
1772655402.717794,1065787,-0.04,0.26,-0.05,-24.44,-77.75,67.87,-8.25,2.19,-3.56,0.00,0.00,-0.06,100.75,-77.87,356.62,-1.81,0.37,-0.62,4,6
1772655402.759959,1065829,0.10,-0.14,-0.32,-24.00,-77.81,67.75,-6.12,-0.50,-0.25,-0.01,-0.06,0.00,100.81,-77.87,356.56,-0.31,0.25,0.06,4,6
1772655402.800874,1065870,-0.08,0.00,-0.30,-23.62,-77.75,67.50,-8.56,-3.00,0.37,-0.06,-0.03,0.00,100.69,-77.87,356.56,0.81,-1.81,-0.25,5,6
1772655402.839848,1065909,-0.10,-0.07,-0.22,-23.25,-77.69,67.19,-7.94,-1.87,0.94,0.00,-0.02,0.10,100.50,-77.87,356.62,0.31,-0.88,0.25,4,6
1772655402.878631,1065948,-0.19,0.11,-0.21,-23.31,-77.69,66.94,-7.00,1.44,2.00,-0.01,-0.03,0.13,100.12,-77.87,356.62,0.00,-1.06,0.13,4,6
1772655402.920442,1065990,0.08,0.13,-0.30,-23.62,-77.81,66.69,-4.25,2.06,0.50,-0.01,0.01,0.07,100.00,-77.81,356.69,1.12,0.00,-1.12,4,5
1772655402.963164,1066032,0.23,0.13,-0.36,-23.75,-77.87,66.56,-3.00,-0.44,-1.25,-0.02,-0.07,0.01,99.94,-77.81,356.69,0.56,-0.37,-0.50,3,5
1772655403.002929,1066072,0.25,0.00,-0.44,-23.62,-77.94,66.50,-1.50,-2.25,-1.25,0.01,-0.15,0.10,99.87,-77.81,356.75,-0.81,-0.25,-0.25,2,2
1772655403.043347,1066113,0.19,-0.04,-0.43,-23.25,-77.94,66.56,-1.37,-5.81,-2.69,-0.01,-0.08,-0.03,99.94,-77.81,356.62,-3.87,-0.81,1.25,2,1
1772655403.083343,1066153,0.02,0.26,-0.22,-22.56,-77.75,66.56,-0.31,-6.87,-0.25,-0.05,-0.08,0.00,99.81,-77.87,356.37,-2.69,-1.56,0.94,3,1
1772655403.125616,1066195,0.76,1.75,-0.40,-22.37,-77.44,66.69,16.19,-12.38,3.50,-0.03,0.11,-0.12,99.75,-77.87,356.37,0.13,0.25,0.19,3,2
1772655403.164515,1066234,1.83,2.69,-0.75,-23.25,-76.44,67.94,56.88,-32.50,5.94,-0.09,0.15,-0.21,100.19,-77.87,356.44,3.06,1.87,-1.00,2,2
1772655403.203930,1066274,1.80,1.57,-0.78,-23.87,-75.00,69.81,108.94,-70.62,6.50,-0.02,0.26,-0.34,100.56,-77.75,356.69,4.37,1.19,-4.69,2,2
1772655403.245895,1066316,-0.45,-1.23,0.06,-25.00,-72.06,73.25,120.44,-87.06,8.81,0.05,0.10,0.11,100.19,-77.62,357.06,3.69,-4.44,-5.94,1,2
1772655403.287514,1066357,-1.67,-2.13,1.02,-26.81,-68.31,76.87,88.44,-68.56,14.31,0.03,-0.28,0.75,99.06,-77.50,357.12,-0.81,-3.25,-0.06,1,2
1772655403.327952,1066398,-0.57,-0.48,0.64,-28.12,-66.31,78.25,49.31,-42.38,10.38,0.00,-0.32,0.27,99.12,-77.50,357.12,2.00,8.06,0.62,2,6
1772655403.368800,1066439,0.12,-0.75,0.15,-28.75,-65.12,79.31,38.56,-27.37,2.87,-0.01,0.07,-0.08,101.69,-77.44,357.25,1.44,18.06,1.00,3,8
1772655403.409919,1066480,-0.55,0.00,0.53,-28.75,-64.00,79.87,13.38,-32.38,5.81,0.00,0.00,-0.09,103.00,-77.37,357.62,10.38,-0.88,0.50,2,8
1772655403.451871,1066522,-0.30,0.00,0.32,-28.06,-63.13,80.19,3.62,-24.31,-3.69,0.02,0.00,-0.10,102.62,-77.37,358.19,12.19,-0.31,0.62,2,8
1772655403.491105,1066561,-0.07,-0.35,-0.09,-27.12,-62.44,80.69,8.00,-21.12,-5.50,0.08,-0.50,-0.06,102.12,-77.44,358.44,7.00,-1.12,1.69,2,8
1772655403.530364,1066600,-0.45,-0.66,0.04,-26.62,-61.81,81.12,8.31,-19.00,-0.25,0.13,-0.49,-0.11,102.00,-77.50,358.50,0.37,-2.94,0.31,3,9
1772655403.572151,1066642,-0.30,-0.30,0.02,-26.50,-61.25,81.19,3.19,-11.63,3.12,-0.07,-0.15,0.18,101.25,-77.37,358.56,-2.87,-2.50,-1.56,3,10
1772655403.613661,1066683,-0.25,-0.36,-0.29,-26.25,-61.00,81.25,-1.62,-8.13,0.44,-0.08,-0.01,0.20,101.12,-77.44,358.06,-14.56,-4.87,2.75,4,10
1772655403.654698,1066724,-0.25,-0.50,-0.26,-25.50,-61.06,81.31,-13.00,-3.56,2.00,-0.09,0.07,0.23,100.94,-77.56,357.44,-12.06,-2.44,-0.06,4,11
1772655403.694166,1066764,-0.03,0.00,-0.20,-24.75,-61.06,80.87,-21.37,-0.31,2.75,-0.02,0.21,0.04,101.00,-77.56,357.12,-7.25,-0.75,-1.19,5,10
1772655403.733149,1066803,-0.22,0.65,-0.05,-24.06,-61.06,80.37,-16.56,-0.88,-1.06,0.04,0.13,0.14,100.81,-77.56,356.94,-2.31,-2.00,-0.94,3,6
1772655403.776108,1066846,-0.33,0.37,0.02,-23.56,-61.06,80.19,-5.12,0.75,-0.13,-0.10,0.00,0.19,100.56,-77.56,356.87,-0.62,0.31,-0.31,3,5
1772655403.815800,1066885,-0.03,0.13,-0.09,-23.56,-61.13,80.06,-3.56,1.50,1.94,-0.08,-0.02,0.04,100.56,-77.50,357.00,3.19,1.69,-2.12,4,4
1772655403.855977,1066925,-0.18,-0.09,-0.05,-23.56,-61.13,79.87,-5.44,3.06,1.25,-0.04,-0.03,-0.04,100.69,-77.50,357.12,1.81,1.06,0.50,4,4
1772655403.897069,1066966,-0.23,-0.07,0.11,-23.44,-61.31,79.69,-10.88,7.50,-1.25,-0.02,0.02,0.04,100.56,-77.44,357.25,4.00,0.37,-0.88,3,4
1772655403.937637,1067007,-0.24,0.13,0.00,-23.06,-61.63,79.44,-10.56,9.06,-3.87,0.02,-0.24,0.12,100.44,-77.44,357.44,1.44,0.75,-0.19,3,4
1772655403.979686,1067049,-0.31,-0.33,0.04,-22.81,-62.06,79.31,-9.19,10.00,-0.19,-0.08,0.01,-0.05,100.44,-77.37,357.50,1.00,0.06,-3.12,4,3
1772655404.018707,1067089,-1.08,-1.09,0.65,-22.69,-62.63,78.75,-20.06,16.62,1.06,0.07,0.08,-0.02,100.31,-77.25,357.69,2.37,0.37,-2.44,3,3
1772655404.058006,1067127,-2.05,-1.04,1.44,-22.06,-63.75,77.81,-45.75,43.38,-4.94,0.03,-0.14,0.08,100.25,-77.25,357.81,3.44,0.56,-0.13,4,6
1772655404.100130,1067170,-1.41,-1.19,1.64,-21.12,-65.50,76.81,-72.19,75.37,-12.00,-0.05,-0.32,0.13,100.19,-77.19,357.94,1.25,1.50,-0.19,4,6
1772655404.141080,1067210,-0.78,-0.45,1.31,-19.62,-69.69,74.06,-95.75,101.25,-6.56,-0.05,-0.21,0.06,100.31,-77.06,358.06,-1.12,2.81,-1.50,4,7
1772655404.181053,1067251,1.71,1.13,0.00,-19.37,-73.56,71.19,-95.81,99.56,-4.06,-0.09,-0.09,-0.14,100.87,-77.06,357.94,-8.44,1.69,2.31,5,7
1772655404.221446,1067291,2.05,1.81,-0.82,-19.31,-76.50,68.81,-65.12,66.75,-7.19,0.02,0.55,-0.31,101.19,-77.00,357.81,-1.81,1.75,-6.31,5,7
1772655404.261693,1067331,1.37,0.87,-0.82,-19.44,-78.31,67.56,-31.06,37.63,-4.00,0.08,-0.06,-0.06,101.50,-76.87,357.62,-12.25,-4.37,4.00,5,8
1772655404.302630,1067372,0.80,0.10,-0.73,-20.62,-79.19,66.81,-16.37,17.50,5.75,-0.05,0.00,0.02,101.25,-77.06,357.06,-4.44,-2.75,-1.19,5,8
1772655404.342225,1067412,0.77,0.36,-0.66,-22.37,-79.50,66.12,-9.56,8.56,7.19,-0.04,0.07,-0.02,100.94,-76.94,357.12,0.62,-0.62,-2.12,6,7
1772655404.382260,1067452,-0.05,0.00,-0.15,-24.19,-79.69,65.50,-9.88,11.75,7.62,-0.03,-0.12,0.15,100.75,-76.94,357.12,1.50,-1.50,0.62,5,8
1772655404.422990,1067493,-1.53,-0.26,0.90,-27.12,-80.19,64.69,-16.50,25.56,9.50,0.01,-0.15,0.18,100.37,-76.94,357.31,5.44,0.44,-1.31,5,7
1772655404.464037,1067534,-0.70,-0.20,0.88,-33.19,-81.19,63.38,-23.69,43.00,13.38,-0.05,-0.18,0.36,100.00,-76.87,357.56,3.44,1.25,-0.13,3,4
1772655404.506227,1067576,0.80,0.49,-0.20,-42.75,-82.44,62.06,-19.25,48.44,7.87,-0.10,-0.17,-0.12,100.31,-76.87,357.69,0.75,3.50,-0.50,3,4
1772655404.545700,1067615,1.77,0.64,-1.07,-5.19,-83.31,61.31,-10.25,28.75,1.69,-0.02,-0.09,-0.49,101.94,-76.75,357.69,-3.12,10.31,0.25,4,4
1772655404.584627,1067654,0.80,0.36,-0.82,-5.19,-83.62,61.00,-5.37,3.50,0.19,0.05,-0.05,-0.17,102.37,-76.75,357.56,-3.81,-2.75,-1.50,3,4
1772655404.628955,1067698,0.30,0.02,-0.33,-5.19,-83.56,60.88,-1.69,-3.44,0.44,0.00,-0.08,0.11,101.50,-76.69,357.44,-3.19,-6.81,-2.25,3,4
1772655404.669189,1067738,-0.43,-0.03,-0.02,-5.12,-83.50,60.94,-1.31,-1.37,-1.12,-0.07,0.01,0.10,100.50,-76.62,357.44,-2.56,-5.56,-3.75,2,3
1772655404.708741,1067778,0.47,0.26,-0.24,-5.12,-83.50,60.88,-0.06,0.56,2.12,0.01,-0.09,0.23,99.62,-76.50,357.44,-1.31,-4.00,-3.81,3,5
1772655404.750103,1067820,0.60,0.39,-0.47,-5.19,-83.37,60.88,5.37,-7.25,1.87,-0.06,-0.23,0.23,98.94,-76.44,357.56,-0.94,-1.94,-1.56,4,6
1772655404.791911,1067861,1.48,0.70,-1.12,-50.63,-83.06,61.06,13.44,-19.69,2.37,-0.11,-0.08,-0.12,98.81,-76.37,357.50,-1.62,-0.62,-1.75,5,6
1772655404.833119,1067902,2.11,1.44,-1.45,-43.38,-81.94,62.06,28.75,-44.88,-0.19,-0.01,-0.05,-0.17,98.75,-76.31,357.56,-2.19,-1.06,-0.37,4,6
1772655404.873137,1067943,1.87,1.23,-1.10,-34.75,-80.06,63.88,53.50,-75.31,-2.06,0.03,0.11,-0.24,98.87,-76.31,357.44,-1.00,-2.12,0.62,4,6
1772655404.913684,1067983,1.92,0.67,-0.73,-27.81,-77.12,66.31,67.37,-99.31,-3.25,-0.06,0.11,-0.02,98.62,-76.31,357.37,1.87,-3.69,0.00,5,5
1772655404.954632,1068024,-0.27,-0.39,0.70,-22.69,-73.31,69.00,67.19,-110.69,-5.81,-0.02,0.08,0.27,97.75,-76.37,357.44,3.44,-6.19,0.31,6,5
1772655404.994398,1068064,-1.81,-0.58,1.59,-20.56,-69.81,71.00,48.63,-88.12,0.00,-0.09,-0.13,0.59,96.56,-76.44,357.50,4.81,-5.87,-0.06,6,5
1772655405.034419,1068104,-1.94,1.11,1.64,-19.37,-67.37,72.44,33.88,-59.19,-7.00,-0.10,-0.29,0.36,95.75,-76.44,357.69,6.06,-0.44,1.56,7,5
1772655405.076405,1068145,-1.25,-0.49,1.17,-19.06,-65.94,74.06,49.38,-31.87,-7.94,-0.13,-0.03,-0.02,95.50,-76.44,357.87,1.94,2.62,0.56,7,5
1772655405.115425,1068185,-0.45,-1.26,0.35,-19.81,-65.25,75.25,30.50,-17.50,-1.12,-0.04,-0.19,0.01,95.75,-76.50,357.87,0.56,0.88,1.25,6,3
1772655405.156627,1068226,-0.64,-0.91,0.36,-19.62,-64.75,75.69,-2.56,-14.00,-3.69,0.04,-0.06,-0.01,95.81,-76.50,357.87,1.00,-0.06,1.94,4,3
1772655405.195698,1068265,-0.46,0.04,0.25,-18.19,-64.50,75.62,-19.87,-6.06,-8.88,-0.04,-0.05,0.05,95.81,-76.62,357.81,0.25,-0.44,2.50,4,3
1772655405.235081,1068305,-0.11,0.61,0.00,-16.81,-64.50,75.56,-13.00,0.13,-7.00,-0.06,0.05,0.03,95.75,-76.69,357.75,0.94,-0.31,0.81,4,3
1772655405.275442,1068345,-0.05,0.23,-0.09,-16.44,-64.62,75.50,-0.81,2.75,0.25,-0.08,0.00,0.10,95.75,-76.69,357.75,0.25,0.31,0.50,4,3
1772655405.315686,1068386,0.02,-0.28,-0.24,-16.87,-64.62,75.44,2.44,0.13,3.87,0.00,-0.03,-0.02,95.87,-76.69,357.75,1.19,1.75,0.50,4,3
1772655405.356182,1068426,-0.35,-0.39,0.00,-17.00,-64.62,75.31,-5.12,1.00,1.50,0.00,-0.03,0.02,96.06,-76.75,357.75,0.25,1.00,1.44,3,2
1772655405.395691,1068465,-0.24,0.01,0.00,-16.56,-64.81,75.06,-13.88,5.19,-2.81,0.00,-0.06,0.00,96.31,-76.75,357.75,-0.56,1.56,2.00,3,3
1772655405.435819,1068505,0.09,0.30,-0.09,-15.81,-65.12,74.81,-14.31,10.38,-4.62,-0.02,-0.04,-0.11,96.62,-76.87,357.62,-2.31,1.56,3.06,5,5
1772655405.475358,1068545,0.27,0.20,-0.20,-15.31,-65.50,74.62,-9.81,7.25,-2.37,0.00,0.00,-0.07,97.06,-76.94,357.44,-0.75,1.19,1.50,5,5
1772655405.514652,1068585,0.02,0.28,-0.13,-15.19,-65.62,74.37,-6.75,0.25,0.69,-0.09,0.03,0.00,97.19,-77.00,357.44,0.19,-0.37,2.06,5,5
1772655405.555759,1068625,-0.69,-0.03,0.27,-15.13,-65.62,74.25,-3.25,2.62,1.56,-0.03,-0.04,-0.03,97.19,-77.06,357.31,0.19,-1.00,3.25,6,5
1772655405.595999,1068665,-1.46,-0.69,0.80,-15.25,-66.00,74.06,-6.06,14.69,-0.06,0.02,-0.01,0.14,97.00,-77.25,357.12,-0.44,-1.19,3.06,6,4
1772655405.635943,1068706,-2.55,-1.08,1.70,-15.13,-67.12,73.62,-26.00,43.19,-2.44,-0.02,-0.07,0.34,96.87,-77.31,357.12,3.12,1.25,1.31,6,4
1772655405.675457,1068745,-3.11,-1.60,2.54,-14.88,-69.81,72.37,-55.00,87.44,-2.87,-0.02,-0.20,0.42,96.81,-77.31,357.25,3.37,3.50,1.81,7,4
1772655405.714133,1068784,0.30,-0.19,1.69,-16.00,-74.31,69.81,-89.00,136.69,2.81,-0.09,-0.26,0.26,97.00,-77.31,357.44,3.69,6.75,1.87,7,5
1772655405.755964,1068826,3.59,0.98,-0.79,-18.06,-78.06,67.37,-91.94,123.56,0.06,-0.08,-0.03,-0.47,98.25,-77.31,357.50,-2.06,6.31,2.19,7,5
1772655405.796381,1068866,3.04,1.16,-1.75,-23.69,-82.31,64.00,-49.75,53.75,0.62,0.06,0.19,-0.80,99.19,-77.37,357.31,-4.19,1.12,-0.19,8,5
1772655405.836481,1068906,1.34,0.72,-1.38,-3.12,-83.37,62.69,-18.94,19.37,9.00,0.16,0.14,-0.38,98.94,-77.37,357.19,-4.25,-6.87,-1.75,5,4
1772655405.876095,1068946,0.61,0.24,-0.96,-3.50,-83.25,62.00,-2.87,-3.87,10.81,-0.02,0.20,0.20,97.94,-77.31,357.00,-6.12,-6.12,-2.31,6,5
1772655405.915011,1068985,0.17,0.19,-0.50,-3.75,-83.19,61.56,-4.62,6.87,5.00,-0.01,0.11,0.21,97.31,-77.25,356.87,-4.37,-3.12,-3.31,5,5
1772655405.956119,1069026,0.60,0.31,-0.60,-3.87,-83.31,61.31,-6.19,8.00,3.69,-0.08,0.09,0.16,97.06,-77.12,356.81,-2.50,0.94,-2.50,5,5
1772655405.999961,1069066,0.59,0.52,-0.73,-4.12,-83.31,60.94,1.31,-5.12,4.81,-0.04,0.03,-0.15,97.37,-77.06,356.81,-0.37,1.94,-1.50,5,5
1772655406.039804,1069107,0.72,0.87,-0.64,-39.19,-82.81,61.00,17.62,-16.56,6.44,-0.02,0.00,-0.14,97.50,-77.00,356.94,1.50,0.25,-1.50,5,6
1772655406.078006,1069147,0.97,0.86,-0.64,-37.56,-81.94,61.81,35.56,-28.50,7.25,-0.04,0.05,-0.05,97.37,-77.00,357.00,1.50,-0.81,-0.62,4,5
1772655406.116310,1069186,1.38,1.38,-0.89,-34.88,-80.56,63.25,52.56,-46.25,5.81,-0.05,0.02,-0.15,97.19,-77.00,357.06,2.44,-1.75,0.06,6,7
1772655406.157330,1069227,1.83,1.57,-0.83,-30.87,-78.50,65.50,75.12,-70.44,0.31,-0.03,0.03,-0.22,96.87,-77.00,357.12,2.81,-3.37,-1.12,4,8
1772655406.197732,1069267,0.78,-0.42,-0.22,-27.37,-75.62,68.44,85.94,-89.25,2.06,-0.05,0.13,0.01,96.06,-76.94,357.25,0.62,-5.94,-1.37,4,7
1772655406.238134,1069308,0.22,-1.24,-0.01,-25.12,-72.50,70.94,63.25,-88.69,-0.25,0.02,-0.24,0.41,95.12,-76.94,357.31,4.00,-3.87,-2.19,4,6
1772655406.277654,1069347,-1.87,-0.77,0.95,-22.62,-69.75,72.69,35.19,-69.69,-6.69,0.04,-0.29,0.53,94.31,-76.87,357.50,4.37,-2.56,-0.44,4,5
1772655406.316640,1069386,-1.11,-0.53,0.68,-20.69,-68.00,73.94,17.12,-43.06,-12.25,-0.10,-0.20,0.28,93.69,-76.81,357.69,1.44,2.81,1.56,5,5
1772655406.358057,1069428,-0.44,-0.17,0.35,-19.25,-67.19,74.56,1.56,-27.87,-11.06,-0.06,-0.28,0.00,94.12,-76.87,357.69,0.94,3.44,1.62,6,5
1772655406.398704,1069468,-0.35,0.11,0.26,-17.31,-66.25,75.06,-4.56,-20.69,-8.94,-0.03,-0.17,-0.05,94.69,-76.94,357.62,-1.56,2.44,3.50,6,5
1772655406.438605,1069508,-0.84,0.30,0.38,-16.00,-65.62,75.31,-3.81,-16.81,-6.44,0.02,0.04,0.06,95.19,-77.06,357.44,-2.50,2.69,3.44,7,5
1772655406.477691,1069547,-0.17,0.00,0.11,-15.19,-65.25,75.69,5.44,-9.50,-8.19,-0.10,-0.17,-0.18,95.81,-77.31,357.12,-5.81,0.50,8.69,7,5
1772655406.516589,1069586,0.34,-0.29,-0.16,-14.69,-64.94,76.12,6.19,-12.38,-5.50,0.00,0.05,-0.06,96.25,-77.62,356.50,-5.44,1.56,6.87,5,3
1772655406.557955,1069628,0.00,0.01,-0.26,-14.31,-64.56,76.37,2.94,-18.25,-2.87,-0.12,0.23,0.03,97.19,-77.69,356.44,3.19,6.06,1.06,5,3
1772655406.598964,1069669,-0.51,0.25,-0.02,-13.75,-63.75,76.62,1.62,-15.13,-4.12,0.06,0.03,-0.02,98.25,-77.69,356.69,6.12,8.13,-1.12,6,3
1772655406.639350,1069709,-0.35,0.03,0.04,-13.06,-63.44,76.94,1.31,-7.81,-7.56,0.01,-0.11,-0.14,99.06,-77.69,356.87,-2.94,-0.94,3.19,5,3
1772655406.678613,1069748,-0.14,-0.14,0.01,-12.50,-63.31,77.31,1.56,-1.87,-6.62,-0.08,-0.13,-0.08,99.25,-77.75,356.62,-2.44,0.19,2.25,5,3
1772655406.717500,1069787,0.00,-0.19,-0.01,-12.25,-63.38,77.50,1.44,-1.31,-2.94,0.02,-0.04,-0.12,99.50,-77.87,356.37,-3.06,-0.06,3.87,4,3
1772655406.758827,1069829,-0.19,-0.02,0.02,-12.13,-63.25,77.56,0.62,-2.56,0.81,0.01,0.05,-0.06,100.06,-77.94,356.37,2.75,3.94,0.44,3,4
1772655406.799695,1069869,-0.08,0.10,-0.09,-12.25,-63.19,77.56,1.19,-2.50,0.94,0.02,0.00,-0.15,100.69,-77.94,356.37,-1.31,0.37,3.37,5,3
1772655406.840194,1069910,-0.03,0.31,-0.21,-12.44,-63.06,77.56,3.94,-2.25,0.44,-0.05,0.05,-0.02,100.75,-78.06,356.25,-0.62,-0.44,0.94,4,5
1772655406.879250,1069949,0.04,0.00,-0.16,-12.75,-63.06,77.75,8.00,-2.19,-1.00,-0.01,-0.01,-0.09,100.75,-78.12,356.06,-5.62,-4.81,5.06,4,5
1772655406.918012,1069988,-0.14,0.11,0.08,-13.06,-62.94,77.94,9.69,-3.12,0.44,-0.01,0.10,0.00,100.31,-78.31,355.62,-3.81,-3.75,1.62,4,5
1772655406.959804,1070029,-0.16,0.01,0.05,-13.38,-62.88,78.12,11.19,-2.94,2.37,-0.04,0.22,0.01,100.00,-78.31,355.56,0.50,-0.25,-0.69,4,4
1772655407.000377,1070070,-0.15,-0.08,-0.04,-14.13,-62.75,78.31,10.81,-1.19,2.75,0.02,0.06,-0.15,100.25,-78.25,355.81,4.50,1.75,-2.87,4,4
1772655407.040796,1070110,-0.23,-0.24,-0.09,-14.69,-62.69,78.50,9.50,0.00,2.69,-0.04,0.04,0.06,100.06,-78.12,356.00,3.00,0.88,-4.69,4,5
1772655407.079915,1070150,0.00,-0.01,-0.23,-15.06,-62.75,78.56,6.37,1.62,2.00,0.02,0.05,-0.04,99.87,-77.94,356.44,5.12,-0.25,-5.87,5,4
1772655407.119101,1070189,-0.03,-0.12,-0.30,-15.44,-62.88,78.69,5.50,1.19,1.44,-0.09,-0.05,0.00,99.62,-77.81,356.69,2.81,0.06,-2.94,5,4
1772655407.160464,1070230,-0.01,-0.02,-0.21,-15.69,-62.94,78.69,1.62,0.25,3.75,-0.01,0.05,0.04,99.00,-77.56,357.19,9.63,0.75,-6.37,5,4
1772655407.201095,1070271,-0.20,-0.02,-0.16,-16.00,-62.94,78.62,1.75,1.56,0.94,0.00,-0.05,0.03,98.62,-77.37,357.69,4.50,-1.94,-2.56,2,4
1772655407.241959,1070311,-0.06,-0.12,-0.18,-16.12,-63.06,78.62,0.06,1.81,-0.50,-0.01,-0.13,0.04,98.19,-77.31,357.94,3.19,-0.31,-3.19,2,3
1772655407.281975,1070351,-0.17,-0.22,-0.17,-16.06,-63.19,78.69,-0.37,1.94,-1.00,-0.03,-0.15,0.09,97.94,-77.19,358.06,-1.87,0.13,-0.75,2,3
1772655407.321020,1070391,-0.16,-0.20,-0.15,-16.00,-63.38,78.62,-3.06,4.12,2.06,-0.03,-0.02,0.07,98.00,-77.19,358.00,-3.56,0.06,0.06,3,3
1772655407.361966,1070432,-0.26,-0.01,-0.04,-16.00,-63.50,78.44,-7.69,5.56,2.75,-0.05,0.18,0.02,98.12,-77.19,357.87,-0.25,-0.06,-1.25,3,3
1772655407.402067,1070472,-0.50,0.02,0.22,-15.94,-63.88,78.06,-11.06,10.81,-0.13,-0.06,0.10,0.06,98.12,-77.12,357.94,-0.13,0.44,0.19,3,3
